# OpenSignals Text File Format
# {"CC:78:AB:62:C7:8F":{"sensor":["RAW"],"device name":"CC:78:AB:62:C7:8F","column":["nSeq","I1","I2","O1","O2","A2"],"sync interval":2,"time":"13:17:16","comments":"","device connection":"BLECC:78:AB:62:C7:8F","channels":[2],"date":"2022-04-28","mode":0,"digital IO":[0,0,1,1],"firmware version":0,"device":"bitalino_rev","position":0,"sampling rate":100,"label":["A2"],"resolution":[10],"special":[{}]}}
# EndOfHeader
0	0	0	0	0	493
1	0	0	0	0	492
2	0	0	0	0	508
3	0	0	0	0	436
4	0	0	0	0	475
5	0	0	0	0	739
6	0	0	0	0	900
7	0	0	0	0	444
8	0	0	0	0	321
9	0	0	0	0	391
10	0	0	0	0	471
11	0	0	0	0	490
12	0	0	0	0	499
13	0	0	0	0	512
14	0	0	0	0	510
15	0	0	0	0	511
0	0	0	0	0	510
1	0	0	0	0	522
2	0	0	0	0	516
3	0	0	0	0	524
4	0	0	0	0	526
5	0	0	0	0	521
6	0	0	0	0	538
7	0	0	0	0	543
8	0	0	0	0	542
9	0	0	0	0	550
10	0	0	0	0	561
11	0	0	0	0	571
12	0	0	0	0	561
13	0	0	0	0	589
14	0	0	0	0	571
15	0	0	0	0	552
0	0	0	0	0	523
1	0	0	0	0	501
2	0	0	0	0	457
3	0	0	0	0	455
4	0	0	0	0	436
5	0	0	0	0	445
6	0	0	0	0	450
7	0	0	0	0	457
8	0	0	0	0	464
9	0	0	0	0	473
10	0	0	0	0	487
11	0	0	0	0	483
12	0	0	0	0	473
13	0	0	0	0	488
14	0	0	0	0	492
15	0	0	0	0	496
0	0	0	0	0	492
1	0	0	0	0	498
2	0	0	0	0	507
3	0	0	0	0	508
4	0	0	0	0	518
5	0	0	0	0	515
6	0	0	0	0	507
7	0	0	0	0	510
8	0	0	0	0	508
9	0	0	0	0	516
10	0	0	0	0	522
11	0	0	0	0	519
12	0	0	0	0	522
13	0	0	0	0	517
14	0	0	0	0	517
15	0	0	0	0	516
0	0	0	0	0	513
1	0	0	0	0	520
2	0	0	0	0	513
3	0	0	0	0	521
4	0	0	0	0	509
5	0	0	0	0	523
6	0	0	0	0	519
7	0	0	0	0	522
8	0	0	0	0	520
9	0	0	0	0	534
10	0	0	0	0	537
11	0	0	0	0	544
12	0	0	0	0	553
13	0	0	0	0	539
14	0	0	0	0	535
15	0	0	0	0	508
0	0	0	0	0	509
1	0	0	0	0	487
2	0	0	0	0	492
3	0	0	0	0	495
4	0	0	0	0	493
5	0	0	0	0	500
6	0	0	0	0	506
7	0	0	0	0	428
8	0	0	0	0	499
9	0	0	0	0	766
10	0	0	0	0	891
11	0	0	0	0	435
12	0	0	0	0	332
13	0	0	0	0	418
14	0	0	0	0	466
15	0	0	0	0	468
0	0	0	0	0	504
1	0	0	0	0	497
2	0	0	0	0	495
3	0	0	0	0	508
4	0	0	0	0	502
5	0	0	0	0	510
6	0	0	0	0	510
7	0	0	0	0	521
8	0	0	0	0	518
9	0	0	0	0	525
10	0	0	0	0	533
11	0	0	0	0	539
12	0	0	0	0	536
13	0	0	0	0	551
14	0	0	0	0	556
15	0	0	0	0	561
0	0	0	0	0	548
1	0	0	0	0	579
2	0	0	0	0	575
3	0	0	0	0	560
4	0	0	0	0	531
5	0	0	0	0	501
6	0	0	0	0	471
7	0	0	0	0	455
8	0	0	0	0	449
9	0	0	0	0	447
10	0	0	0	0	464
11	0	0	0	0	462
12	0	0	0	0	475
13	0	0	0	0	472
14	0	0	0	0	486
15	0	0	0	0	485
0	0	0	0	0	487
1	0	0	0	0	488
2	0	0	0	0	486
3	0	0	0	0	496
4	0	0	0	0	495
5	0	0	0	0	486
6	0	0	0	0	494
7	0	0	0	0	498
8	0	0	0	0	502
9	0	0	0	0	513
10	0	0	0	0	512
11	0	0	0	0	515
12	0	0	0	0	518
13	0	0	0	0	501
14	0	0	0	0	512
15	0	0	0	0	511
0	0	0	0	0	520
1	0	0	0	0	513
2	0	0	0	0	517
3	0	0	0	0	518
4	0	0	0	0	517
5	0	0	0	0	522
6	0	0	0	0	513
7	0	0	0	0	518
8	0	0	0	0	526
9	0	0	0	0	512
10	0	0	0	0	522
11	0	0	0	0	526
12	0	0	0	0	511
13	0	0	0	0	515
14	0	0	0	0	515
15	0	0	0	0	517
0	0	0	0	0	516
1	0	0	0	0	522
2	0	0	0	0	519
3	0	0	0	0	513
4	0	0	0	0	511
5	0	0	0	0	515
6	0	0	0	0	516
7	0	0	0	0	513
8	0	0	0	0	532
9	0	0	0	0	525
10	0	0	0	0	503
11	0	0	0	0	514
12	0	0	0	0	523
13	0	0	0	0	513
14	0	0	0	0	525
15	0	0	0	0	534
0	0	0	0	0	531
1	0	0	0	0	549
2	0	0	0	0	556
3	0	0	0	0	538
4	0	0	0	0	513
5	0	0	0	0	506
6	0	0	0	0	488
7	0	0	0	0	491
8	0	0	0	0	501
9	0	0	0	0	489
10	0	0	0	0	496
11	0	0	0	0	501
12	0	0	0	0	447
13	0	0	0	0	445
14	0	0	0	0	649
15	0	0	0	0	908
0	0	0	0	0	604
1	0	0	0	0	328
2	0	0	0	0	383
3	0	0	0	0	443
4	0	0	0	0	479
5	0	0	0	0	480
6	0	0	0	0	493
7	0	0	0	0	499
8	0	0	0	0	507
9	0	0	0	0	515
10	0	0	0	0	501
11	0	0	0	0	507
12	0	0	0	0	508
13	0	0	0	0	512
14	0	0	0	0	518
15	0	0	0	0	525
0	0	0	0	0	533
1	0	0	0	0	538
2	0	0	0	0	531
3	0	0	0	0	551
4	0	0	0	0	553
5	0	0	0	0	571
6	0	0	0	0	568
7	0	0	0	0	575
8	0	0	0	0	576
9	0	0	0	0	553
10	0	0	0	0	527
11	0	0	0	0	490
12	0	0	0	0	455
13	0	0	0	0	459
14	0	0	0	0	455
15	0	0	0	0	459
0	0	0	0	0	460
1	0	0	0	0	463
2	0	0	0	0	470
3	0	0	0	0	478
4	0	0	0	0	476
5	0	0	0	0	483
6	0	0	0	0	480
7	0	0	0	0	492
8	0	0	0	0	497
9	0	0	0	0	494
10	0	0	0	0	495
11	0	0	0	0	495
12	0	0	0	0	500
13	0	0	0	0	502
14	0	0	0	0	513
15	0	0	0	0	499
0	0	0	0	0	510
1	0	0	0	0	513
2	0	0	0	0	512
3	0	0	0	0	497
4	0	0	0	0	507
5	0	0	0	0	524
6	0	0	0	0	506
7	0	0	0	0	512
8	0	0	0	0	504
9	0	0	0	0	524
10	0	0	0	0	513
11	0	0	0	0	524
12	0	0	0	0	525
13	0	0	0	0	500
14	0	0	0	0	520
15	0	0	0	0	518
0	0	0	0	0	519
1	0	0	0	0	514
2	0	0	0	0	514
3	0	0	0	0	531
4	0	0	0	0	508
5	0	0	0	0	533
6	0	0	0	0	518
7	0	0	0	0	527
8	0	0	0	0	531
9	0	0	0	0	551
10	0	0	0	0	542
11	0	0	0	0	543
12	0	0	0	0	521
13	0	0	0	0	513
14	0	0	0	0	496
15	0	0	0	0	483
0	0	0	0	0	512
1	0	0	0	0	497
2	0	0	0	0	490
3	0	0	0	0	498
4	0	0	0	0	483
5	0	0	0	0	437
6	0	0	0	0	605
7	0	0	0	0	924
8	0	0	0	0	605
9	0	0	0	0	312
10	0	0	0	0	348
11	0	0	0	0	456
12	0	0	0	0	496
13	0	0	0	0	501
14	0	0	0	0	501
15	0	0	0	0	508
0	0	0	0	0	512
1	0	0	0	0	519
2	0	0	0	0	518
3	0	0	0	0	525
4	0	0	0	0	519
5	0	0	0	0	534
6	0	0	0	0	535
7	0	0	0	0	538
8	0	0	0	0	523
9	0	0	0	0	541
10	0	0	0	0	558
11	0	0	0	0	562
12	0	0	0	0	564
13	0	0	0	0	571
14	0	0	0	0	585
15	0	0	0	0	582
0	0	0	0	0	568
1	0	0	0	0	555
2	0	0	0	0	508
3	0	0	0	0	481
4	0	0	0	0	451
5	0	0	0	0	446
6	0	0	0	0	437
7	0	0	0	0	436
8	0	0	0	0	451
9	0	0	0	0	455
10	0	0	0	0	456
11	0	0	0	0	473
12	0	0	0	0	470
13	0	0	0	0	473
14	0	0	0	0	482
15	0	0	0	0	483
0	0	0	0	0	496
1	0	0	0	0	487
2	0	0	0	0	487
3	0	0	0	0	496
4	0	0	0	0	506
5	0	0	0	0	505
6	0	0	0	0	503
7	0	0	0	0	508
8	0	0	0	0	504
9	0	0	0	0	511
10	0	0	0	0	506
11	0	0	0	0	508
12	0	0	0	0	519
13	0	0	0	0	517
14	0	0	0	0	519
15	0	0	0	0	519
0	0	0	0	0	512
1	0	0	0	0	512
2	0	0	0	0	515
3	0	0	0	0	510
4	0	0	0	0	510
5	0	0	0	0	512
6	0	0	0	0	515
7	0	0	0	0	519
8	0	0	0	0	524
9	0	0	0	0	518
10	0	0	0	0	522
11	0	0	0	0	519
12	0	0	0	0	560
13	0	0	0	0	547
14	0	0	0	0	552
15	0	0	0	0	530
0	0	0	0	0	515
1	0	0	0	0	512
2	0	0	0	0	502
3	0	0	0	0	492
4	0	0	0	0	493
5	0	0	0	0	499
6	0	0	0	0	479
7	0	0	0	0	497
8	0	0	0	0	445
9	0	0	0	0	566
10	0	0	0	0	851
11	0	0	0	0	765
12	0	0	0	0	340
13	0	0	0	0	337
14	0	0	0	0	446
15	0	0	0	0	485
0	0	0	0	0	489
1	0	0	0	0	483
2	0	0	0	0	494
3	0	0	0	0	500
4	0	0	0	0	507
5	0	0	0	0	517
6	0	0	0	0	526
7	0	0	0	0	539
8	0	0	0	0	520
9	0	0	0	0	511
10	0	0	0	0	526
11	0	0	0	0	519
12	0	0	0	0	524
13	0	0	0	0	536
14	0	0	0	0	538
15	0	0	0	0	559
0	0	0	0	0	563
1	0	0	0	0	576
2	0	0	0	0	571
3	0	0	0	0	577
4	0	0	0	0	540
5	0	0	0	0	526
6	0	0	0	0	479
7	0	0	0	0	486
8	0	0	0	0	448
9	0	0	0	0	447
10	0	0	0	0	486
11	0	0	0	0	463
12	0	0	0	0	454
13	0	0	0	0	478
14	0	0	0	0	465
15	0	0	0	0	508
0	0	0	0	0	482
1	0	0	0	0	482
2	0	0	0	0	491
3	0	0	0	0	489
4	0	0	0	0	507
5	0	0	0	0	507
6	0	0	0	0	509
7	0	0	0	0	509
8	0	0	0	0	517
9	0	0	0	0	510
10	0	0	0	0	511
11	0	0	0	0	520
12	0	0	0	0	514
13	0	0	0	0	516
14	0	0	0	0	529
15	0	0	0	0	505
0	0	0	0	0	485
1	0	0	0	0	527
2	0	0	0	0	525
3	0	0	0	0	511
4	0	0	0	0	532
5	0	0	0	0	520
6	0	0	0	0	520
7	0	0	0	0	524
8	0	0	0	0	532
9	0	0	0	0	561
10	0	0	0	0	524
11	0	0	0	0	537
12	0	0	0	0	528
13	0	0	0	0	511
14	0	0	0	0	503
15	0	0	0	0	514
0	0	0	0	0	504
1	0	0	0	0	501
2	0	0	0	0	496
3	0	0	0	0	502
4	0	0	0	0	472
5	0	0	0	0	460
6	0	0	0	0	656
7	0	0	0	0	898
8	0	0	0	0	593
9	0	0	0	0	276
10	0	0	0	0	327
11	0	0	0	0	463
12	0	0	0	0	505
13	0	0	0	0	496
14	0	0	0	0	509
15	0	0	0	0	522
0	0	0	0	0	504
1	0	0	0	0	515
2	0	0	0	0	537
3	0	0	0	0	519
4	0	0	0	0	536
5	0	0	0	0	501
6	0	0	0	0	506
7	0	0	0	0	510
8	0	0	0	0	500
9	0	0	0	0	563
10	0	0	0	0	559
11	0	0	0	0	543
12	0	0	0	0	560
13	0	0	0	0	545
14	0	0	0	0	585
15	0	0	0	0	581
0	0	0	0	0	592
1	0	0	0	0	483
2	0	0	0	0	521
3	0	0	0	0	422
4	0	0	0	0	468
5	0	0	0	0	449
6	0	0	0	0	406
7	0	0	0	0	427
8	0	0	0	0	447
9	0	0	0	0	502
10	0	0	0	0	453
11	0	0	0	0	487
12	0	0	0	0	471
13	0	0	0	0	470
14	0	0	0	0	454
15	0	0	0	0	475
0	0	0	0	0	499
1	0	0	0	0	510
2	0	0	0	0	419
3	0	0	0	0	511
4	0	0	0	0	527
5	0	0	0	0	471
6	0	0	0	0	526
7	0	0	0	0	518
8	0	0	0	0	472
9	0	0	0	0	567
10	0	0	0	0	523
11	0	0	0	0	486
12	0	0	0	0	561
13	0	0	0	0	512
14	0	0	0	0	536
15	0	0	0	0	488
0	0	0	0	0	517
1	0	0	0	0	545
2	0	0	0	0	478
3	0	0	0	0	549
4	0	0	0	0	525
5	0	0	0	0	592
6	0	0	0	0	574
7	0	0	0	0	514
8	0	0	0	0	542
9	0	0	0	0	470
10	0	0	0	0	521
11	0	0	0	0	510
12	0	0	0	0	524
13	0	0	0	0	517
14	0	0	0	0	500
15	0	0	0	0	482
0	0	0	0	0	511
1	0	0	0	0	438
2	0	0	0	0	664
3	0	0	0	0	921
4	0	0	0	0	683
5	0	0	0	0	325
6	0	0	0	0	323
7	0	0	0	0	463
8	0	0	0	0	484
9	0	0	0	0	516
10	0	0	0	0	449
11	0	0	0	0	529
12	0	0	0	0	492
13	0	0	0	0	525
14	0	0	0	0	514
15	0	0	0	0	515
0	0	0	0	0	503
1	0	0	0	0	533
2	0	0	0	0	496
3	0	0	0	0	559
4	0	0	0	0	504
5	0	0	0	0	541
6	0	0	0	0	502
7	0	0	0	0	560
8	0	0	0	0	590
9	0	0	0	0	532
10	0	0	0	0	613
11	0	0	0	0	561
12	0	0	0	0	548
13	0	0	0	0	554
14	0	0	0	0	521
15	0	0	0	0	495
0	0	0	0	0	446
1	0	0	0	0	450
2	0	0	0	0	435
3	0	0	0	0	478
4	0	0	0	0	452
5	0	0	0	0	465
6	0	0	0	0	495
7	0	0	0	0	475
8	0	0	0	0	453
9	0	0	0	0	492
10	0	0	0	0	423
11	0	0	0	0	513
12	0	0	0	0	496
13	0	0	0	0	507
14	0	0	0	0	512
15	0	0	0	0	512
0	0	0	0	0	509
1	0	0	0	0	522
2	0	0	0	0	488
3	0	0	0	0	503
4	0	0	0	0	523
5	0	0	0	0	518
6	0	0	0	0	519
7	0	0	0	0	525
8	0	0	0	0	527
9	0	0	0	0	509
10	0	0	0	0	519
11	0	0	0	0	534
12	0	0	0	0	553
13	0	0	0	0	542
14	0	0	0	0	551
15	0	0	0	0	558
0	0	0	0	0	559
1	0	0	0	0	543
2	0	0	0	0	548
3	0	0	0	0	514
4	0	0	0	0	490
5	0	0	0	0	526
6	0	0	0	0	504
7	0	0	0	0	521
8	0	0	0	0	508
9	0	0	0	0	500
10	0	0	0	0	465
11	0	0	0	0	486
12	0	0	0	0	734
13	0	0	0	0	896
14	0	0	0	0	533
15	0	0	0	0	304
0	0	0	0	0	395
1	0	0	0	0	478
2	0	0	0	0	500
3	0	0	0	0	481
4	0	0	0	0	517
5	0	0	0	0	503
6	0	0	0	0	526
7	0	0	0	0	519
8	0	0	0	0	535
9	0	0	0	0	518
10	0	0	0	0	541
11	0	0	0	0	524
12	0	0	0	0	527
13	0	0	0	0	536
14	0	0	0	0	541
15	0	0	0	0	534
0	0	0	0	0	536
1	0	0	0	0	546
2	0	0	0	0	587
3	0	0	0	0	584
4	0	0	0	0	579
5	0	0	0	0	573
6	0	0	0	0	567
7	0	0	0	0	528
8	0	0	0	0	497
9	0	0	0	0	468
10	0	0	0	0	426
11	0	0	0	0	447
12	0	0	0	0	450
13	0	0	0	0	450
14	0	0	0	0	455
15	0	0	0	0	448
0	0	0	0	0	463
1	0	0	0	0	451
2	0	0	0	0	477
3	0	0	0	0	470
4	0	0	0	0	491
5	0	0	0	0	469
6	0	0	0	0	476
7	0	0	0	0	483
8	0	0	0	0	467
9	0	0	0	0	474
10	0	0	0	0	490
11	0	0	0	0	478
12	0	0	0	0	473
13	0	0	0	0	487
14	0	0	0	0	498
15	0	0	0	0	482
0	0	0	0	0	494
1	0	0	0	0	480
2	0	0	0	0	489
3	0	0	0	0	502
4	0	0	0	0	492
5	0	0	0	0	494
6	0	0	0	0	499
7	0	0	0	0	512
8	0	0	0	0	524
9	0	0	0	0	531
10	0	0	0	0	516
11	0	0	0	0	517
12	0	0	0	0	497
13	0	0	0	0	479
14	0	0	0	0	472
15	0	0	0	0	488
0	0	0	0	0	482
1	0	0	0	0	482
2	0	0	0	0	486
3	0	0	0	0	497
4	0	0	0	0	432
5	0	0	0	0	455
6	0	0	0	0	730
7	0	0	0	0	902
8	0	0	0	0	446
9	0	0	0	0	262
10	0	0	0	0	371
11	0	0	0	0	460
12	0	0	0	0	494
13	0	0	0	0	494
14	0	0	0	0	521
15	0	0	0	0	498
0	0	0	0	0	502
1	0	0	0	0	532
2	0	0	0	0	508
3	0	0	0	0	523
4	0	0	0	0	537
5	0	0	0	0	527
6	0	0	0	0	527
7	0	0	0	0	536
8	0	0	0	0	526
9	0	0	0	0	540
10	0	0	0	0	545
11	0	0	0	0	575
12	0	0	0	0	583
13	0	0	0	0	574
14	0	0	0	0	601
15	0	0	0	0	594
0	0	0	0	0	569
1	0	0	0	0	516
2	0	0	0	0	499
3	0	0	0	0	459
4	0	0	0	0	446
5	0	0	0	0	442
6	0	0	0	0	445
7	0	0	0	0	451
8	0	0	0	0	449
9	0	0	0	0	448
10	0	0	0	0	478
11	0	0	0	0	488
12	0	0	0	0	475
13	0	0	0	0	484
14	0	0	0	0	494
15	0	0	0	0	484
0	0	0	0	0	484
1	0	0	0	0	512
2	0	0	0	0	511
3	0	0	0	0	493
4	0	0	0	0	500
5	0	0	0	0	513
6	0	0	0	0	521
7	0	0	0	0	515
8	0	0	0	0	502
9	0	0	0	0	523
10	0	0	0	0	515
11	0	0	0	0	515
12	0	0	0	0	519
13	0	0	0	0	524
14	0	0	0	0	524
15	0	0	0	0	518
0	0	0	0	0	526
1	0	0	0	0	547
2	0	0	0	0	540
3	0	0	0	0	537
4	0	0	0	0	546
5	0	0	0	0	544
6	0	0	0	0	528
7	0	0	0	0	511
8	0	0	0	0	504
9	0	0	0	0	505
10	0	0	0	0	497
11	0	0	0	0	493
12	0	0	0	0	518
13	0	0	0	0	491
14	0	0	0	0	455
15	0	0	0	0	485
0	0	0	0	0	748
1	0	0	0	0	919
2	0	0	0	0	469
3	0	0	0	0	308
4	0	0	0	0	400
5	0	0	0	0	480
6	0	0	0	0	489
7	0	0	0	0	489
8	0	0	0	0	513
9	0	0	0	0	523
10	0	0	0	0	513
11	0	0	0	0	528
12	0	0	0	0	521
13	0	0	0	0	524
14	0	0	0	0	531
15	0	0	0	0	517
0	0	0	0	0	545
1	0	0	0	0	533
2	0	0	0	0	543
3	0	0	0	0	556
4	0	0	0	0	550
5	0	0	0	0	569
6	0	0	0	0	570
7	0	0	0	0	575
8	0	0	0	0	604
9	0	0	0	0	582
10	0	0	0	0	580
11	0	0	0	0	543
12	0	0	0	0	487
13	0	0	0	0	455
14	0	0	0	0	473
15	0	0	0	0	455
0	0	0	0	0	457
1	0	0	0	0	456
2	0	0	0	0	463
3	0	0	0	0	475
4	0	0	0	0	486
5	0	0	0	0	486
6	0	0	0	0	496
7	0	0	0	0	497
8	0	0	0	0	482
9	0	0	0	0	487
10	0	0	0	0	498
11	0	0	0	0	505
12	0	0	0	0	510
13	0	0	0	0	511
14	0	0	0	0	502
15	0	0	0	0	510
0	0	0	0	0	508
1	0	0	0	0	516
2	0	0	0	0	512
3	0	0	0	0	519
4	0	0	0	0	512
5	0	0	0	0	521
6	0	0	0	0	524
7	0	0	0	0	528
8	0	0	0	0	520
9	0	0	0	0	528
10	0	0	0	0	529
11	0	0	0	0	530
12	0	0	0	0	526
13	0	0	0	0	525
14	0	0	0	0	581
15	0	0	0	0	546
0	0	0	0	0	516
1	0	0	0	0	540
2	0	0	0	0	518
3	0	0	0	0	504
4	0	0	0	0	513
5	0	0	0	0	495
6	0	0	0	0	504
7	0	0	0	0	501
8	0	0	0	0	507
9	0	0	0	0	517
10	0	0	0	0	448
11	0	0	0	0	542
12	0	0	0	0	844
13	0	0	0	0	768
14	0	0	0	0	339
15	0	0	0	0	336
0	0	0	0	0	441
1	0	0	0	0	483
2	0	0	0	0	487
3	0	0	0	0	514
4	0	0	0	0	519
5	0	0	0	0	521
6	0	0	0	0	517
7	0	0	0	0	509
8	0	0	0	0	519
9	0	0	0	0	527
10	0	0	0	0	526
11	0	0	0	0	528
12	0	0	0	0	545
13	0	0	0	0	540
14	0	0	0	0	539
15	0	0	0	0	544
0	0	0	0	0	539
1	0	0	0	0	568
2	0	0	0	0	572
3	0	0	0	0	583
4	0	0	0	0	586
5	0	0	0	0	577
6	0	0	0	0	556
7	0	0	0	0	498
8	0	0	0	0	484
9	0	0	0	0	467
10	0	0	0	0	455
11	0	0	0	0	439
12	0	0	0	0	449
13	0	0	0	0	455
14	0	0	0	0	460
15	0	0	0	0	469
0	0	0	0	0	493
1	0	0	0	0	481
2	0	0	0	0	483
3	0	0	0	0	481
4	0	0	0	0	493
5	0	0	0	0	487
6	0	0	0	0	498
7	0	0	0	0	506
8	0	0	0	0	512
9	0	0	0	0	499
10	0	0	0	0	508
11	0	0	0	0	505
12	0	0	0	0	498
13	0	0	0	0	512
14	0	0	0	0	512
15	0	0	0	0	513
0	0	0	0	0	513
1	0	0	0	0	527
2	0	0	0	0	512
3	0	0	0	0	526
4	0	0	0	0	513
5	0	0	0	0	507
6	0	0	0	0	528
7	0	0	0	0	516
8	0	0	0	0	518
9	0	0	0	0	524
10	0	0	0	0	534
11	0	0	0	0	549
12	0	0	0	0	540
13	0	0	0	0	535
14	0	0	0	0	534
15	0	0	0	0	537
0	0	0	0	0	499
1	0	0	0	0	501
2	0	0	0	0	481
3	0	0	0	0	512
4	0	0	0	0	503
5	0	0	0	0	505
6	0	0	0	0	490
7	0	0	0	0	483
8	0	0	0	0	440
9	0	0	0	0	599
10	0	0	0	0	834
11	0	0	0	0	723
12	0	0	0	0	343
13	0	0	0	0	361
14	0	0	0	0	448
15	0	0	0	0	486
0	0	0	0	0	490
1	0	0	0	0	496
2	0	0	0	0	490
3	0	0	0	0	502
4	0	0	0	0	515
5	0	0	0	0	526
6	0	0	0	0	531
7	0	0	0	0	515
8	0	0	0	0	514
9	0	0	0	0	508
10	0	0	0	0	528
11	0	0	0	0	526
12	0	0	0	0	528
13	0	0	0	0	519
14	0	0	0	0	571
15	0	0	0	0	536
0	0	0	0	0	547
1	0	0	0	0	572
2	0	0	0	0	573
3	0	0	0	0	542
4	0	0	0	0	563
5	0	0	0	0	511
6	0	0	0	0	493
7	0	0	0	0	444
8	0	0	0	0	466
9	0	0	0	0	464
10	0	0	0	0	450
11	0	0	0	0	440
12	0	0	0	0	486
13	0	0	0	0	479
14	0	0	0	0	479
15	0	0	0	0	486
0	0	0	0	0	482
1	0	0	0	0	487
2	0	0	0	0	489
3	0	0	0	0	488
4	0	0	0	0	483
5	0	0	0	0	513
6	0	0	0	0	486
7	0	0	0	0	488
8	0	0	0	0	496
9	0	0	0	0	504
10	0	0	0	0	504
11	0	0	0	0	498
12	0	0	0	0	500
13	0	0	0	0	504
14	0	0	0	0	514
15	0	0	0	0	521
0	0	0	0	0	515
1	0	0	0	0	510
2	0	0	0	0	509
3	0	0	0	0	523
4	0	0	0	0	503
5	0	0	0	0	515
6	0	0	0	0	529
7	0	0	0	0	512
8	0	0	0	0	508
9	0	0	0	0	504
10	0	0	0	0	520
11	0	0	0	0	512
12	0	0	0	0	522
13	0	0	0	0	522
14	0	0	0	0	535
15	0	0	0	0	496
0	0	0	0	0	521
1	0	0	0	0	519
2	0	0	0	0	521
3	0	0	0	0	519
4	0	0	0	0	509
5	0	0	0	0	521
6	0	0	0	0	527
7	0	0	0	0	521
8	0	0	0	0	519
9	0	0	0	0	556
10	0	0	0	0	554
11	0	0	0	0	536
12	0	0	0	0	532
13	0	0	0	0	533
14	0	0	0	0	510
15	0	0	0	0	490
0	0	0	0	0	520
1	0	0	0	0	494
2	0	0	0	0	483
3	0	0	0	0	517
4	0	0	0	0	511
5	0	0	0	0	492
6	0	0	0	0	440
7	0	0	0	0	539
8	0	0	0	0	803
9	0	0	0	0	837
10	0	0	0	0	379
11	0	0	0	0	334
12	0	0	0	0	432
13	0	0	0	0	493
14	0	0	0	0	483
15	0	0	0	0	489
0	0	0	0	0	489
1	0	0	0	0	494
2	0	0	0	0	527
3	0	0	0	0	530
4	0	0	0	0	528
5	0	0	0	0	515
6	0	0	0	0	521
7	0	0	0	0	524
8	0	0	0	0	540
9	0	0	0	0	531
10	0	0	0	0	538
11	0	0	0	0	545
12	0	0	0	0	559
13	0	0	0	0	550
14	0	0	0	0	575
15	0	0	0	0	587
0	0	0	0	0	577
1	0	0	0	0	572
2	0	0	0	0	598
3	0	0	0	0	546
4	0	0	0	0	507
5	0	0	0	0	475
6	0	0	0	0	471
7	0	0	0	0	462
8	0	0	0	0	459
9	0	0	0	0	456
10	0	0	0	0	468
11	0	0	0	0	478
12	0	0	0	0	479
13	0	0	0	0	484
14	0	0	0	0	496
15	0	0	0	0	491
0	0	0	0	0	495
1	0	0	0	0	491
2	0	0	0	0	495
3	0	0	0	0	493
4	0	0	0	0	502
5	0	0	0	0	502
6	0	0	0	0	505
7	0	0	0	0	504
8	0	0	0	0	514
9	0	0	0	0	497
10	0	0	0	0	501
11	0	0	0	0	516
12	0	0	0	0	518
13	0	0	0	0	508
14	0	0	0	0	527
15	0	0	0	0	509
0	0	0	0	0	504
1	0	0	0	0	504
2	0	0	0	0	515
3	0	0	0	0	516
4	0	0	0	0	501
5	0	0	0	0	528
6	0	0	0	0	518
7	0	0	0	0	501
8	0	0	0	0	519
9	0	0	0	0	505
10	0	0	0	0	511
11	0	0	0	0	516
12	0	0	0	0	504
13	0	0	0	0	526
14	0	0	0	0	502
15	0	0	0	0	503
0	0	0	0	0	512
1	0	0	0	0	513
2	0	0	0	0	513
3	0	0	0	0	509
4	0	0	0	0	524
5	0	0	0	0	486
6	0	0	0	0	510
7	0	0	0	0	513
8	0	0	0	0	521
9	0	0	0	0	505
10	0	0	0	0	519
11	0	0	0	0	523
12	0	0	0	0	521
13	0	0	0	0	526
14	0	0	0	0	536
15	0	0	0	0	519
0	0	0	0	0	503
1	0	0	0	0	482
2	0	0	0	0	476
3	0	0	0	0	473
4	0	0	0	0	485
5	0	0	0	0	480
6	0	0	0	0	479
7	0	0	0	0	484
8	0	0	0	0	430
9	0	0	0	0	511
10	0	0	0	0	780
11	0	0	0	0	856
12	0	0	0	0	377
13	0	0	0	0	314
14	0	0	0	0	401
15	0	0	0	0	468
0	0	0	0	0	469
1	0	0	0	0	492
2	0	0	0	0	487
3	0	0	0	0	492
4	0	0	0	0	511
5	0	0	0	0	487
6	0	0	0	0	508
7	0	0	0	0	517
8	0	0	0	0	515
9	0	0	0	0	507
10	0	0	0	0	505
11	0	0	0	0	527
12	0	0	0	0	519
13	0	0	0	0	515
14	0	0	0	0	547
15	0	0	0	0	544
0	0	0	0	0	555
1	0	0	0	0	546
2	0	0	0	0	580
3	0	0	0	0	579
4	0	0	0	0	545
5	0	0	0	0	544
6	0	0	0	0	508
7	0	0	0	0	465
8	0	0	0	0	454
9	0	0	0	0	444
10	0	0	0	0	447
11	0	0	0	0	447
12	0	0	0	0	462
13	0	0	0	0	460
14	0	0	0	0	473
15	0	0	0	0	458
0	0	0	0	0	478
1	0	0	0	0	485
2	0	0	0	0	483
3	0	0	0	0	486
4	0	0	0	0	486
5	0	0	0	0	492
6	0	0	0	0	491
7	0	0	0	0	504
8	0	0	0	0	499
9	0	0	0	0	505
10	0	0	0	0	499
11	0	0	0	0	508
12	0	0	0	0	503
13	0	0	0	0	489
14	0	0	0	0	517
15	0	0	0	0	513
0	0	0	0	0	510
1	0	0	0	0	516
2	0	0	0	0	515
3	0	0	0	0	509
4	0	0	0	0	508
5	0	0	0	0	521
6	0	0	0	0	523
7	0	0	0	0	515
8	0	0	0	0	520
9	0	0	0	0	516
10	0	0	0	0	510
11	0	0	0	0	515
12	0	0	0	0	519
13	0	0	0	0	511
14	0	0	0	0	531
15	0	0	0	0	508
0	0	0	0	0	519
1	0	0	0	0	524
2	0	0	0	0	513
3	0	0	0	0	520
4	0	0	0	0	510
5	0	0	0	0	521
6	0	0	0	0	520
7	0	0	0	0	524
8	0	0	0	0	529
9	0	0	0	0	520
10	0	0	0	0	546
11	0	0	0	0	545
12	0	0	0	0	540
13	0	0	0	0	534
14	0	0	0	0	554
15	0	0	0	0	505
0	0	0	0	0	491
1	0	0	0	0	492
2	0	0	0	0	513
3	0	0	0	0	496
4	0	0	0	0	498
5	0	0	0	0	502
6	0	0	0	0	503
7	0	0	0	0	432
8	0	0	0	0	489
9	0	0	0	0	782
10	0	0	0	0	910
11	0	0	0	0	408
12	0	0	0	0	301
13	0	0	0	0	416
14	0	0	0	0	477
15	0	0	0	0	487
0	0	0	0	0	491
1	0	0	0	0	509
2	0	0	0	0	509
3	0	0	0	0	515
4	0	0	0	0	515
5	0	0	0	0	516
6	0	0	0	0	525
7	0	0	0	0	524
8	0	0	0	0	524
9	0	0	0	0	544
10	0	0	0	0	526
11	0	0	0	0	538
12	0	0	0	0	551
13	0	0	0	0	543
14	0	0	0	0	550
15	0	0	0	0	568
0	0	0	0	0	573
1	0	0	0	0	584
2	0	0	0	0	584
3	0	0	0	0	575
4	0	0	0	0	565
5	0	0	0	0	518
6	0	0	0	0	491
7	0	0	0	0	462
8	0	0	0	0	447
9	0	0	0	0	446
10	0	0	0	0	461
11	0	0	0	0	460
12	0	0	0	0	471
13	0	0	0	0	476
14	0	0	0	0	472
15	0	0	0	0	484
0	0	0	0	0	486
1	0	0	0	0	477
2	0	0	0	0	491
3	0	0	0	0	493
4	0	0	0	0	503
5	0	0	0	0	495
6	0	0	0	0	494
7	0	0	0	0	508
8	0	0	0	0	498
9	0	0	0	0	508
10	0	0	0	0	515
11	0	0	0	0	515
12	0	0	0	0	524
13	0	0	0	0	516
14	0	0	0	0	505
15	0	0	0	0	514
0	0	0	0	0	525
1	0	0	0	0	504
2	0	0	0	0	517
3	0	0	0	0	526
4	0	0	0	0	521
5	0	0	0	0	525
6	0	0	0	0	517
7	0	0	0	0	515
8	0	0	0	0	531
9	0	0	0	0	521
10	0	0	0	0	540
11	0	0	0	0	533
12	0	0	0	0	544
13	0	0	0	0	540
14	0	0	0	0	556
15	0	0	0	0	536
0	0	0	0	0	506
1	0	0	0	0	495
2	0	0	0	0	504
3	0	0	0	0	505
4	0	0	0	0	497
5	0	0	0	0	497
6	0	0	0	0	500
7	0	0	0	0	484
8	0	0	0	0	449
9	0	0	0	0	558
10	0	0	0	0	840
11	0	0	0	0	746
12	0	0	0	0	311
13	0	0	0	0	310
14	0	0	0	0	425
15	0	0	0	0	491
0	0	0	0	0	492
1	0	0	0	0	507
2	0	0	0	0	517
3	0	0	0	0	513
4	0	0	0	0	523
5	0	0	0	0	519
6	0	0	0	0	537
7	0	0	0	0	524
8	0	0	0	0	526
9	0	0	0	0	530
10	0	0	0	0	525
11	0	0	0	0	543
12	0	0	0	0	537
13	0	0	0	0	545
14	0	0	0	0	556
15	0	0	0	0	574
0	0	0	0	0	570
1	0	0	0	0	583
2	0	0	0	0	588
3	0	0	0	0	579
4	0	0	0	0	562
5	0	0	0	0	531
6	0	0	0	0	486
7	0	0	0	0	458
8	0	0	0	0	445
9	0	0	0	0	435
10	0	0	0	0	434
11	0	0	0	0	454
12	0	0	0	0	456
13	0	0	0	0	451
14	0	0	0	0	465
15	0	0	0	0	464
0	0	0	0	0	480
1	0	0	0	0	478
2	0	0	0	0	464
3	0	0	0	0	498
4	0	0	0	0	511
5	0	0	0	0	481
6	0	0	0	0	501
7	0	0	0	0	492
8	0	0	0	0	500
9	0	0	0	0	509
10	0	0	0	0	503
11	0	0	0	0	514
12	0	0	0	0	513
13	0	0	0	0	512
14	0	0	0	0	513
15	0	0	0	0	525
0	0	0	0	0	508
1	0	0	0	0	531
2	0	0	0	0	507
3	0	0	0	0	511
4	0	0	0	0	511
5	0	0	0	0	510
6	0	0	0	0	519
7	0	0	0	0	519
8	0	0	0	0	521
9	0	0	0	0	530
10	0	0	0	0	533
11	0	0	0	0	548
12	0	0	0	0	544
13	0	0	0	0	531
14	0	0	0	0	532
15	0	0	0	0	507
0	0	0	0	0	498
1	0	0	0	0	489
2	0	0	0	0	507
3	0	0	0	0	489
4	0	0	0	0	505
5	0	0	0	0	496
6	0	0	0	0	484
7	0	0	0	0	449
8	0	0	0	0	599
9	0	0	0	0	863
10	0	0	0	0	703
11	0	0	0	0	307
12	0	0	0	0	352
13	0	0	0	0	450
14	0	0	0	0	482
15	0	0	0	0	497
0	0	0	0	0	489
1	0	0	0	0	500
2	0	0	0	0	510
3	0	0	0	0	513
4	0	0	0	0	531
5	0	0	0	0	501
6	0	0	0	0	528
7	0	0	0	0	526
8	0	0	0	0	521
9	0	0	0	0	523
10	0	0	0	0	522
11	0	0	0	0	534
12	0	0	0	0	536
13	0	0	0	0	546
14	0	0	0	0	552
15	0	0	0	0	565
0	0	0	0	0	566
1	0	0	0	0	579
2	0	0	0	0	585
3	0	0	0	0	556
4	0	0	0	0	515
5	0	0	0	0	481
6	0	0	0	0	462
7	0	0	0	0	454
8	0	0	0	0	455
9	0	0	0	0	457
10	0	0	0	0	464
11	0	0	0	0	467
12	0	0	0	0	458
13	0	0	0	0	474
14	0	0	0	0	486
15	0	0	0	0	498
0	0	0	0	0	487
1	0	0	0	0	495
2	0	0	0	0	491
3	0	0	0	0	493
4	0	0	0	0	494
5	0	0	0	0	505
6	0	0	0	0	495
7	0	0	0	0	505
8	0	0	0	0	509
9	0	0	0	0	503
10	0	0	0	0	493
11	0	0	0	0	512
12	0	0	0	0	517
13	0	0	0	0	512
14	0	0	0	0	510
15	0	0	0	0	525
0	0	0	0	0	518
1	0	0	0	0	521
2	0	0	0	0	510
3	0	0	0	0	516
4	0	0	0	0	522
5	0	0	0	0	527
6	0	0	0	0	515
7	0	0	0	0	515
8	0	0	0	0	517
9	0	0	0	0	511
10	0	0	0	0	523
11	0	0	0	0	531
12	0	0	0	0	516
13	0	0	0	0	520
14	0	0	0	0	530
15	0	0	0	0	527
0	0	0	0	0	536
1	0	0	0	0	529
2	0	0	0	0	531
3	0	0	0	0	558
4	0	0	0	0	549
5	0	0	0	0	531
6	0	0	0	0	544
7	0	0	0	0	511
8	0	0	0	0	500
9	0	0	0	0	497
10	0	0	0	0	511
11	0	0	0	0	500
12	0	0	0	0	500
13	0	0	0	0	515
14	0	0	0	0	464
15	0	0	0	0	467
0	0	0	0	0	656
1	0	0	0	0	904
2	0	0	0	0	628
3	0	0	0	0	312
4	0	0	0	0	388
5	0	0	0	0	465
6	0	0	0	0	487
7	0	0	0	0	500
8	0	0	0	0	515
9	0	0	0	0	512
10	0	0	0	0	514
11	0	0	0	0	517
12	0	0	0	0	521
13	0	0	0	0	523
14	0	0	0	0	527
15	0	0	0	0	530
0	0	0	0	0	535
1	0	0	0	0	534
2	0	0	0	0	544
3	0	0	0	0	543
4	0	0	0	0	551
5	0	0	0	0	551
6	0	0	0	0	572
7	0	0	0	0	566
8	0	0	0	0	569
9	0	0	0	0	589
10	0	0	0	0	595
11	0	0	0	0	550
12	0	0	0	0	521
13	0	0	0	0	499
14	0	0	0	0	466
15	0	0	0	0	461
0	0	0	0	0	453
1	0	0	0	0	457
2	0	0	0	0	458
3	0	0	0	0	460
4	0	0	0	0	469
5	0	0	0	0	471
6	0	0	0	0	484
7	0	0	0	0	494
8	0	0	0	0	486
9	0	0	0	0	477
10	0	0	0	0	479
11	0	0	0	0	494
12	0	0	0	0	504
13	0	0	0	0	489
14	0	0	0	0	492
15	0	0	0	0	491
0	0	0	0	0	507
1	0	0	0	0	505
2	0	0	0	0	504
3	0	0	0	0	495
4	0	0	0	0	512
5	0	0	0	0	504
6	0	0	0	0	508
7	0	0	0	0	514
8	0	0	0	0	517
9	0	0	0	0	502
10	0	0	0	0	504
11	0	0	0	0	507
12	0	0	0	0	513
13	0	0	0	0	509
14	0	0	0	0	507
15	0	0	0	0	505
0	0	0	0	0	508
1	0	0	0	0	521
2	0	0	0	0	511
3	0	0	0	0	509
4	0	0	0	0	510
5	0	0	0	0	502
6	0	0	0	0	504
7	0	0	0	0	518
8	0	0	0	0	512
9	0	0	0	0	508
10	0	0	0	0	516
11	0	0	0	0	507
12	0	0	0	0	510
13	0	0	0	0	508
14	0	0	0	0	509
15	0	0	0	0	521
0	0	0	0	0	513
1	0	0	0	0	519
2	0	0	0	0	522
3	0	0	0	0	543
4	0	0	0	0	534
5	0	0	0	0	518
6	0	0	0	0	520
7	0	0	0	0	505
8	0	0	0	0	486
9	0	0	0	0	479
10	0	0	0	0	485
11	0	0	0	0	485
12	0	0	0	0	495
13	0	0	0	0	493
14	0	0	0	0	473
15	0	0	0	0	444
0	0	0	0	0	556
1	0	0	0	0	850
2	0	0	0	0	747
3	0	0	0	0	318
4	0	0	0	0	328
5	0	0	0	0	432
6	0	0	0	0	465
7	0	0	0	0	482
8	0	0	0	0	495
9	0	0	0	0	495
10	0	0	0	0	501
11	0	0	0	0	487
12	0	0	0	0	511
13	0	0	0	0	509
14	0	0	0	0	512
15	0	0	0	0	510
0	0	0	0	0	523
1	0	0	0	0	516
2	0	0	0	0	528
3	0	0	0	0	524
4	0	0	0	0	523
5	0	0	0	0	549
6	0	0	0	0	551
7	0	0	0	0	564
8	0	0	0	0	566
9	0	0	0	0	585
10	0	0	0	0	556
11	0	0	0	0	562
12	0	0	0	0	530
13	0	0	0	0	495
14	0	0	0	0	480
15	0	0	0	0	457
0	0	0	0	0	439
1	0	0	0	0	439
2	0	0	0	0	466
3	0	0	0	0	460
4	0	0	0	0	456
5	0	0	0	0	476
6	0	0	0	0	472
7	0	0	0	0	471
8	0	0	0	0	492
9	0	0	0	0	475
10	0	0	0	0	488
11	0	0	0	0	484
12	0	0	0	0	493
13	0	0	0	0	494
14	0	0	0	0	497
15	0	0	0	0	503
0	0	0	0	0	510
1	0	0	0	0	501
2	0	0	0	0	515
3	0	0	0	0	509
4	0	0	0	0	509
5	0	0	0	0	508
6	0	0	0	0	521
7	0	0	0	0	504
8	0	0	0	0	511
9	0	0	0	0	529
10	0	0	0	0	518
11	0	0	0	0	513
12	0	0	0	0	514
13	0	0	0	0	523
14	0	0	0	0	513
15	0	0	0	0	516
0	0	0	0	0	516
1	0	0	0	0	520
2	0	0	0	0	526
3	0	0	0	0	515
4	0	0	0	0	527
5	0	0	0	0	520
6	0	0	0	0	511
7	0	0	0	0	521
8	0	0	0	0	518
9	0	0	0	0	526
10	0	0	0	0	517
11	0	0	0	0	517
12	0	0	0	0	526
13	0	0	0	0	545
14	0	0	0	0	537
15	0	0	0	0	541
0	0	0	0	0	543
1	0	0	0	0	524
2	0	0	0	0	502
3	0	0	0	0	495
4	0	0	0	0	486
5	0	0	0	0	504
6	0	0	0	0	493
7	0	0	0	0	500
8	0	0	0	0	493
9	0	0	0	0	449
10	0	0	0	0	470
11	0	0	0	0	711
12	0	0	0	0	922
13	0	0	0	0	494
14	0	0	0	0	284
15	0	0	0	0	387
0	0	0	0	0	467
1	0	0	0	0	488
2	0	0	0	0	494
3	0	0	0	0	495
4	0	0	0	0	508
5	0	0	0	0	508
6	0	0	0	0	513
7	0	0	0	0	524
8	0	0	0	0	510
9	0	0	0	0	532
10	0	0	0	0	523
11	0	0	0	0	529
12	0	0	0	0	536
13	0	0	0	0	529
14	0	0	0	0	537
15	0	0	0	0	550
0	0	0	0	0	557
1	0	0	0	0	556
2	0	0	0	0	573
3	0	0	0	0	573
4	0	0	0	0	588
5	0	0	0	0	581
6	0	0	0	0	553
7	0	0	0	0	522
8	0	0	0	0	487
9	0	0	0	0	463
10	0	0	0	0	429
11	0	0	0	0	460
12	0	0	0	0	451
13	0	0	0	0	457
14	0	0	0	0	450
15	0	0	0	0	466
0	0	0	0	0	468
1	0	0	0	0	483
2	0	0	0	0	474
3	0	0	0	0	487
4	0	0	0	0	492
5	0	0	0	0	482
6	0	0	0	0	493
7	0	0	0	0	501
8	0	0	0	0	499
9	0	0	0	0	498
10	0	0	0	0	497
11	0	0	0	0	507
12	0	0	0	0	516
13	0	0	0	0	502
14	0	0	0	0	523
15	0	0	0	0	503
0	0	0	0	0	517
1	0	0	0	0	513
2	0	0	0	0	505
3	0	0	0	0	527
4	0	0	0	0	512
5	0	0	0	0	519
6	0	0	0	0	525
7	0	0	0	0	507
8	0	0	0	0	527
9	0	0	0	0	526
10	0	0	0	0	527
11	0	0	0	0	529
12	0	0	0	0	561
13	0	0	0	0	531
14	0	0	0	0	547
15	0	0	0	0	531
0	0	0	0	0	530
1	0	0	0	0	504
2	0	0	0	0	501
3	0	0	0	0	501
4	0	0	0	0	493
5	0	0	0	0	507
6	0	0	0	0	500
7	0	0	0	0	503
8	0	0	0	0	481
9	0	0	0	0	440
10	0	0	0	0	593
11	0	0	0	0	887
12	0	0	0	0	698
13	0	0	0	0	295
14	0	0	0	0	336
15	0	0	0	0	444
0	0	0	0	0	486
1	0	0	0	0	504
2	0	0	0	0	502
3	0	0	0	0	505
4	0	0	0	0	506
5	0	0	0	0	515
6	0	0	0	0	521
7	0	0	0	0	530
8	0	0	0	0	520
9	0	0	0	0	530
10	0	0	0	0	527
11	0	0	0	0	516
12	0	0	0	0	524
13	0	0	0	0	543
14	0	0	0	0	544
15	0	0	0	0	548
0	0	0	0	0	562
1	0	0	0	0	583
2	0	0	0	0	580
3	0	0	0	0	576
4	0	0	0	0	568
5	0	0	0	0	568
6	0	0	0	0	524
7	0	0	0	0	480
8	0	0	0	0	458
9	0	0	0	0	446
10	0	0	0	0	444
11	0	0	0	0	447
12	0	0	0	0	447
13	0	0	0	0	465
14	0	0	0	0	468
15	0	0	0	0	476
0	0	0	0	0	469
1	0	0	0	0	479
2	0	0	0	0	478
3	0	0	0	0	482
4	0	0	0	0	482
5	0	0	0	0	502
6	0	0	0	0	485
7	0	0	0	0	504
8	0	0	0	0	494
9	0	0	0	0	497
10	0	0	0	0	497
11	0	0	0	0	508
12	0	0	0	0	516
13	0	0	0	0	518
14	0	0	0	0	510
15	0	0	0	0	499
0	0	0	0	0	511
1	0	0	0	0	523
2	0	0	0	0	508
3	0	0	0	0	519
4	0	0	0	0	521
5	0	0	0	0	523
6	0	0	0	0	516
7	0	0	0	0	517
8	0	0	0	0	525
9	0	0	0	0	528
10	0	0	0	0	523
11	0	0	0	0	544
12	0	0	0	0	546
13	0	0	0	0	541
14	0	0	0	0	543
15	0	0	0	0	528
0	0	0	0	0	507
1	0	0	0	0	502
2	0	0	0	0	497
3	0	0	0	0	498
4	0	0	0	0	497
5	0	0	0	0	498
6	0	0	0	0	499
7	0	0	0	0	473
8	0	0	0	0	451
9	0	0	0	0	627
10	0	0	0	0	880
11	0	0	0	0	658
12	0	0	0	0	303
13	0	0	0	0	375
14	0	0	0	0	452
15	0	0	0	0	492
0	0	0	0	0	482
1	0	0	0	0	496
2	0	0	0	0	511
3	0	0	0	0	506
4	0	0	0	0	504
5	0	0	0	0	507
6	0	0	0	0	521
7	0	0	0	0	513
8	0	0	0	0	531
9	0	0	0	0	516
10	0	0	0	0	535
11	0	0	0	0	530
12	0	0	0	0	535
13	0	0	0	0	541
14	0	0	0	0	556
15	0	0	0	0	548
0	0	0	0	0	565
1	0	0	0	0	563
2	0	0	0	0	557
3	0	0	0	0	591
4	0	0	0	0	556
5	0	0	0	0	526
6	0	0	0	0	501
7	0	0	0	0	471
8	0	0	0	0	477
9	0	0	0	0	448
10	0	0	0	0	453
11	0	0	0	0	461
12	0	0	0	0	453
13	0	0	0	0	472
14	0	0	0	0	488
15	0	0	0	0	490
0	0	0	0	0	467
1	0	0	0	0	487
2	0	0	0	0	492
3	0	0	0	0	467
4	0	0	0	0	507
5	0	0	0	0	491
6	0	0	0	0	515
7	0	0	0	0	514
8	0	0	0	0	506
9	0	0	0	0	507
10	0	0	0	0	497
11	0	0	0	0	521
12	0	0	0	0	510
13	0	0	0	0	517
14	0	0	0	0	507
15	0	0	0	0	523
0	0	0	0	0	519
1	0	0	0	0	524
2	0	0	0	0	526
3	0	0	0	0	520
4	0	0	0	0	511
5	0	0	0	0	515
6	0	0	0	0	522
7	0	0	0	0	536
8	0	0	0	0	553
9	0	0	0	0	541
10	0	0	0	0	551
11	0	0	0	0	530
12	0	0	0	0	525
13	0	0	0	0	502
14	0	0	0	0	503
15	0	0	0	0	483
0	0	0	0	0	499
1	0	0	0	0	492
2	0	0	0	0	489
3	0	0	0	0	497
4	0	0	0	0	446
5	0	0	0	0	479
6	0	0	0	0	718
7	0	0	0	0	935
8	0	0	0	0	469
9	0	0	0	0	258
10	0	0	0	0	383
11	0	0	0	0	453
12	0	0	0	0	492
13	0	0	0	0	497
14	0	0	0	0	512
15	0	0	0	0	509
0	0	0	0	0	493
1	0	0	0	0	513
2	0	0	0	0	515
3	0	0	0	0	537
4	0	0	0	0	518
5	0	0	0	0	513
6	0	0	0	0	532
7	0	0	0	0	538
8	0	0	0	0	539
9	0	0	0	0	551
10	0	0	0	0	524
11	0	0	0	0	547
12	0	0	0	0	562
13	0	0	0	0	587
14	0	0	0	0	589
15	0	0	0	0	618
0	0	0	0	0	571
1	0	0	0	0	562
2	0	0	0	0	498
3	0	0	0	0	470
4	0	0	0	0	468
5	0	0	0	0	467
6	0	0	0	0	452
7	0	0	0	0	440
8	0	0	0	0	480
9	0	0	0	0	461
10	0	0	0	0	480
11	0	0	0	0	468
12	0	0	0	0	467
13	0	0	0	0	470
14	0	0	0	0	478
15	0	0	0	0	487
0	0	0	0	0	503
1	0	0	0	0	497
2	0	0	0	0	508
3	0	0	0	0	514
4	0	0	0	0	510
5	0	0	0	0	547
6	0	0	0	0	524
7	0	0	0	0	520
8	0	0	0	0	511
9	0	0	0	0	507
10	0	0	0	0	522
11	0	0	0	0	516
12	0	0	0	0	495
13	0	0	0	0	510
14	0	0	0	0	536
15	0	0	0	0	526
0	0	0	0	0	515
1	0	0	0	0	534
2	0	0	0	0	545
3	0	0	0	0	546
4	0	0	0	0	498
5	0	0	0	0	533
6	0	0	0	0	529
7	0	0	0	0	501
8	0	0	0	0	501
9	0	0	0	0	489
10	0	0	0	0	500
11	0	0	0	0	517
12	0	0	0	0	508
13	0	0	0	0	510
14	0	0	0	0	428
15	0	0	0	0	467
0	0	0	0	0	691
1	0	0	0	0	907
2	0	0	0	0	457
3	0	0	0	0	323
4	0	0	0	0	402
5	0	0	0	0	486
6	0	0	0	0	479
7	0	0	0	0	477
8	0	0	0	0	543
9	0	0	0	0	515
10	0	0	0	0	553
11	0	0	0	0	542
12	0	0	0	0	540
13	0	0	0	0	535
14	0	0	0	0	496
15	0	0	0	0	538
0	0	0	0	0	485
1	0	0	0	0	540
2	0	0	0	0	541
3	0	0	0	0	542
4	0	0	0	0	543
5	0	0	0	0	543
6	0	0	0	0	529
7	0	0	0	0	600
8	0	0	0	0	518
9	0	0	0	0	608
10	0	0	0	0	561
11	0	0	0	0	537
12	0	0	0	0	479
13	0	0	0	0	452
14	0	0	0	0	438
15	0	0	0	0	431
0	0	0	0	0	387
1	0	0	0	0	422
2	0	0	0	0	463
3	0	0	0	0	475
4	0	0	0	0	496
5	0	0	0	0	480
6	0	0	0	0	515
7	0	0	0	0	481
8	0	0	0	0	501
9	0	0	0	0	479
10	0	0	0	0	485
11	0	0	0	0	454
12	0	0	0	0	493
13	0	0	0	0	450
14	0	0	0	0	499
15	0	0	0	0	433
0	0	0	0	0	560
1	0	0	0	0	483
2	0	0	0	0	575
3	0	0	0	0	499
4	0	0	0	0	490
5	0	0	0	0	506
6	0	0	0	0	525
7	0	0	0	0	512
8	0	0	0	0	480
9	0	0	0	0	494
10	0	0	0	0	516
11	0	0	0	0	531
12	0	0	0	0	471
13	0	0	0	0	531
14	0	0	0	0	472
15	0	0	0	0	491
0	0	0	0	0	475
1	0	0	0	0	492
2	0	0	0	0	469
3	0	0	0	0	433
4	0	0	0	0	503
5	0	0	0	0	410
6	0	0	0	0	522
7	0	0	0	0	806
8	0	0	0	0	810
9	0	0	0	0	311
10	0	0	0	0	245
11	0	0	0	0	429
12	0	0	0	0	477
13	0	0	0	0	458
14	0	0	0	0	513
15	0	0	0	0	504
0	0	0	0	0	487
1	0	0	0	0	527
2	0	0	0	0	517
3	0	0	0	0	495
4	0	0	0	0	522
5	0	0	0	0	518
6	0	0	0	0	519
7	0	0	0	0	529
8	0	0	0	0	560
9	0	0	0	0	530
10	0	0	0	0	538
11	0	0	0	0	583
12	0	0	0	0	599
13	0	0	0	0	569
14	0	0	0	0	587
15	0	0	0	0	572
0	0	0	0	0	521
1	0	0	0	0	575
2	0	0	0	0	536
3	0	0	0	0	454
4	0	0	0	0	441
5	0	0	0	0	454
6	0	0	0	0	430
7	0	0	0	0	470
8	0	0	0	0	414
9	0	0	0	0	482
10	0	0	0	0	490
11	0	0	0	0	467
12	0	0	0	0	473
13	0	0	0	0	468
14	0	0	0	0	485
15	0	0	0	0	488
0	0	0	0	0	476
1	0	0	0	0	442
2	0	0	0	0	544
3	0	0	0	0	506
4	0	0	0	0	448
5	0	0	0	0	596
6	0	0	0	0	477
7	0	0	0	0	477
8	0	0	0	0	507
9	0	0	0	0	493
10	0	0	0	0	519
11	0	0	0	0	540
12	0	0	0	0	496
13	0	0	0	0	539
14	0	0	0	0	563
15	0	0	0	0	557
0	0	0	0	0	527
1	0	0	0	0	524
2	0	0	0	0	510
3	0	0	0	0	517
4	0	0	0	0	476
5	0	0	0	0	487
6	0	0	0	0	515
7	0	0	0	0	513
8	0	0	0	0	467
9	0	0	0	0	476
10	0	0	0	0	607
11	0	0	0	0	891
12	0	0	0	0	671
13	0	0	0	0	285
14	0	0	0	0	380
15	0	0	0	0	465
0	0	0	0	0	456
1	0	0	0	0	446
2	0	0	0	0	521
3	0	0	0	0	507
4	0	0	0	0	478
5	0	0	0	0	519
6	0	0	0	0	495
7	0	0	0	0	473
8	0	0	0	0	552
9	0	0	0	0	505
10	0	0	0	0	481
11	0	0	0	0	523
12	0	0	0	0	483
13	0	0	0	0	492
14	0	0	0	0	518
15	0	0	0	0	521
0	0	0	0	0	534
1	0	0	0	0	518
2	0	0	0	0	555
3	0	0	0	0	550
4	0	0	0	0	509
5	0	0	0	0	538
6	0	0	0	0	487
7	0	0	0	0	472
8	0	0	0	0	468
9	0	0	0	0	452
10	0	0	0	0	446
11	0	0	0	0	459
12	0	0	0	0	460
13	0	0	0	0	468
14	0	0	0	0	465
15	0	0	0	0	480
0	0	0	0	0	480
1	0	0	0	0	475
2	0	0	0	0	494
3	0	0	0	0	507
4	0	0	0	0	513
5	0	0	0	0	490
6	0	0	0	0	500
7	0	0	0	0	518
8	0	0	0	0	507
9	0	0	0	0	501
10	0	0	0	0	501
11	0	0	0	0	530
12	0	0	0	0	510
13	0	0	0	0	518
14	0	0	0	0	527
15	0	0	0	0	511
0	0	0	0	0	516
1	0	0	0	0	520
2	0	0	0	0	551
3	0	0	0	0	557
4	0	0	0	0	540
5	0	0	0	0	544
6	0	0	0	0	526
7	0	0	0	0	517
8	0	0	0	0	504
9	0	0	0	0	521
10	0	0	0	0	486
11	0	0	0	0	519
12	0	0	0	0	513
13	0	0	0	0	495
14	0	0	0	0	470
15	0	0	0	0	493
0	0	0	0	0	665
1	0	0	0	0	909
2	0	0	0	0	609
3	0	0	0	0	329
4	0	0	0	0	353
5	0	0	0	0	468
6	0	0	0	0	482
7	0	0	0	0	491
8	0	0	0	0	534
9	0	0	0	0	542
10	0	0	0	0	524
11	0	0	0	0	515
12	0	0	0	0	533
13	0	0	0	0	526
14	0	0	0	0	544
15	0	0	0	0	529
0	0	0	0	0	526
1	0	0	0	0	551
2	0	0	0	0	542
3	0	0	0	0	540
4	0	0	0	0	530
5	0	0	0	0	555
6	0	0	0	0	583
7	0	0	0	0	567
8	0	0	0	0	583
9	0	0	0	0	585
10	0	0	0	0	557
11	0	0	0	0	549
12	0	0	0	0	511
13	0	0	0	0	472
14	0	0	0	0	478
15	0	0	0	0	462
0	0	0	0	0	458
1	0	0	0	0	463
2	0	0	0	0	468
3	0	0	0	0	487
4	0	0	0	0	491
5	0	0	0	0	488
6	0	0	0	0	486
7	0	0	0	0	519
8	0	0	0	0	511
9	0	0	0	0	505
10	0	0	0	0	504
11	0	0	0	0	498
12	0	0	0	0	493
13	0	0	0	0	512
14	0	0	0	0	508
15	0	0	0	0	496
0	0	0	0	0	486
1	0	0	0	0	519
2	0	0	0	0	521
3	0	0	0	0	510
4	0	0	0	0	509
5	0	0	0	0	526
6	0	0	0	0	511
7	0	0	0	0	533
8	0	0	0	0	523
9	0	0	0	0	530
10	0	0	0	0	530
11	0	0	0	0	551
12	0	0	0	0	555
13	0	0	0	0	540
14	0	0	0	0	554
15	0	0	0	0	531
0	0	0	0	0	489
1	0	0	0	0	486
2	0	0	0	0	496
3	0	0	0	0	486
4	0	0	0	0	517
5	0	0	0	0	486
6	0	0	0	0	513
7	0	0	0	0	457
8	0	0	0	0	505
9	0	0	0	0	785
10	0	0	0	0	903
11	0	0	0	0	402
12	0	0	0	0	291
13	0	0	0	0	423
14	0	0	0	0	486
15	0	0	0	0	499
0	0	0	0	0	504
1	0	0	0	0	509
2	0	0	0	0	516
3	0	0	0	0	524
4	0	0	0	0	513
5	0	0	0	0	524
6	0	0	0	0	523
7	0	0	0	0	515
8	0	0	0	0	551
9	0	0	0	0	563
10	0	0	0	0	534
11	0	0	0	0	535
12	0	0	0	0	534
13	0	0	0	0	545
14	0	0	0	0	549
15	0	0	0	0	560
0	0	0	0	0	567
1	0	0	0	0	577
2	0	0	0	0	589
3	0	0	0	0	575
4	0	0	0	0	552
5	0	0	0	0	494
6	0	0	0	0	476
7	0	0	0	0	472
8	0	0	0	0	466
9	0	0	0	0	445
10	0	0	0	0	454
11	0	0	0	0	480
12	0	0	0	0	476
13	0	0	0	0	469
14	0	0	0	0	481
15	0	0	0	0	493
0	0	0	0	0	473
1	0	0	0	0	493
2	0	0	0	0	487
3	0	0	0	0	498
4	0	0	0	0	504
5	0	0	0	0	497
6	0	0	0	0	509
7	0	0	0	0	486
8	0	0	0	0	513
9	0	0	0	0	501
10	0	0	0	0	503
11	0	0	0	0	513
12	0	0	0	0	519
13	0	0	0	0	513
14	0	0	0	0	498
15	0	0	0	0	525
0	0	0	0	0	540
1	0	0	0	0	535
2	0	0	0	0	518
3	0	0	0	0	517
4	0	0	0	0	539
5	0	0	0	0	553
6	0	0	0	0	529
7	0	0	0	0	566
8	0	0	0	0	537
9	0	0	0	0	559
10	0	0	0	0	576
11	0	0	0	0	548
12	0	0	0	0	494
13	0	0	0	0	486
14	0	0	0	0	500
15	0	0	0	0	506
0	0	0	0	0	512
1	0	0	0	0	521
2	0	0	0	0	517
3	0	0	0	0	469
4	0	0	0	0	479
5	0	0	0	0	705
6	0	0	0	0	935
7	0	0	0	0	489
8	0	0	0	0	285
9	0	0	0	0	372
10	0	0	0	0	467
11	0	0	0	0	504
12	0	0	0	0	480
13	0	0	0	0	542
14	0	0	0	0	513
15	0	0	0	0	532
0	0	0	0	0	524
1	0	0	0	0	520
2	0	0	0	0	519
3	0	0	0	0	533
4	0	0	0	0	519
5	0	0	0	0	542
6	0	0	0	0	543
7	0	0	0	0	545
8	0	0	0	0	543
9	0	0	0	0	559
10	0	0	0	0	552
11	0	0	0	0	593
12	0	0	0	0	571
13	0	0	0	0	595
14	0	0	0	0	578
15	0	0	0	0	577
0	0	0	0	0	553
1	0	0	0	0	509
2	0	0	0	0	470
3	0	0	0	0	473
4	0	0	0	0	469
5	0	0	0	0	462
6	0	0	0	0	452
7	0	0	0	0	464
8	0	0	0	0	459
9	0	0	0	0	464
10	0	0	0	0	477
11	0	0	0	0	464
12	0	0	0	0	515
13	0	0	0	0	480
14	0	0	0	0	490
15	0	0	0	0	494
0	0	0	0	0	479
1	0	0	0	0	495
2	0	0	0	0	512
3	0	0	0	0	515
4	0	0	0	0	501
5	0	0	0	0	515
6	0	0	0	0	534
7	0	0	0	0	506
8	0	0	0	0	508
9	0	0	0	0	518
10	0	0	0	0	512
11	0	0	0	0	513
12	0	0	0	0	524
13	0	0	0	0	525
14	0	0	0	0	536
15	0	0	0	0	550
0	0	0	0	0	561
1	0	0	0	0	553
2	0	0	0	0	567
3	0	0	0	0	530
4	0	0	0	0	495
5	0	0	0	0	514
6	0	0	0	0	513
7	0	0	0	0	508
8	0	0	0	0	481
9	0	0	0	0	523
10	0	0	0	0	496
11	0	0	0	0	487
12	0	0	0	0	442
13	0	0	0	0	577
14	0	0	0	0	896
15	0	0	0	0	735
0	0	0	0	0	288
1	0	0	0	0	342
2	0	0	0	0	441
3	0	0	0	0	477
4	0	0	0	0	517
5	0	0	0	0	505
6	0	0	0	0	526
7	0	0	0	0	505
8	0	0	0	0	500
9	0	0	0	0	560
10	0	0	0	0	537
11	0	0	0	0	540
12	0	0	0	0	523
13	0	0	0	0	508
14	0	0	0	0	551
15	0	0	0	0	538
0	0	0	0	0	540
1	0	0	0	0	544
2	0	0	0	0	555
3	0	0	0	0	575
4	0	0	0	0	573
5	0	0	0	0	573
6	0	0	0	0	583
7	0	0	0	0	561
8	0	0	0	0	554
9	0	0	0	0	532
10	0	0	0	0	470
11	0	0	0	0	450
12	0	0	0	0	444
13	0	0	0	0	446
14	0	0	0	0	427
15	0	0	0	0	446
0	0	0	0	0	451
1	0	0	0	0	465
2	0	0	0	0	440
3	0	0	0	0	473
4	0	0	0	0	472
5	0	0	0	0	461
6	0	0	0	0	472
7	0	0	0	0	486
8	0	0	0	0	476
9	0	0	0	0	498
10	0	0	0	0	496
11	0	0	0	0	493
12	0	0	0	0	508
13	0	0	0	0	494
14	0	0	0	0	492
15	0	0	0	0	486
0	0	0	0	0	508
1	0	0	0	0	515
2	0	0	0	0	501
3	0	0	0	0	507
4	0	0	0	0	522
5	0	0	0	0	526
6	0	0	0	0	528
7	0	0	0	0	537
8	0	0	0	0	520
9	0	0	0	0	529
10	0	0	0	0	509
11	0	0	0	0	494
12	0	0	0	0	474
13	0	0	0	0	500
14	0	0	0	0	482
15	0	0	0	0	493
0	0	0	0	0	480
1	0	0	0	0	491
2	0	0	0	0	428
3	0	0	0	0	499
4	0	0	0	0	770
5	0	0	0	0	885
6	0	0	0	0	377
7	0	0	0	0	297
8	0	0	0	0	398
9	0	0	0	0	477
10	0	0	0	0	493
11	0	0	0	0	499
12	0	0	0	0	493
13	0	0	0	0	517
14	0	0	0	0	515
15	0	0	0	0	510
0	0	0	0	0	523
1	0	0	0	0	521
2	0	0	0	0	531
3	0	0	0	0	543
4	0	0	0	0	525
5	0	0	0	0	532
6	0	0	0	0	530
7	0	0	0	0	541
8	0	0	0	0	540
9	0	0	0	0	546
10	0	0	0	0	573
11	0	0	0	0	567
12	0	0	0	0	563
13	0	0	0	0	585
14	0	0	0	0	565
15	0	0	0	0	528
0	0	0	0	0	479
1	0	0	0	0	468
2	0	0	0	0	441
3	0	0	0	0	448
4	0	0	0	0	439
5	0	0	0	0	451
6	0	0	0	0	443
7	0	0	0	0	460
8	0	0	0	0	456
9	0	0	0	0	472
10	0	0	0	0	478
11	0	0	0	0	466
12	0	0	0	0	491
13	0	0	0	0	492
14	0	0	0	0	479
15	0	0	0	0	496
0	0	0	0	0	502
1	0	0	0	0	495
2	0	0	0	0	503
3	0	0	0	0	506
4	0	0	0	0	504
5	0	0	0	0	512
6	0	0	0	0	516
7	0	0	0	0	521
8	0	0	0	0	524
9	0	0	0	0	534
10	0	0	0	0	541
11	0	0	0	0	542
12	0	0	0	0	531
13	0	0	0	0	539
14	0	0	0	0	528
15	0	0	0	0	496
0	0	0	0	0	486
1	0	0	0	0	499
2	0	0	0	0	476
3	0	0	0	0	490
4	0	0	0	0	496
5	0	0	0	0	502
6	0	0	0	0	433
7	0	0	0	0	520
8	0	0	0	0	821
9	0	0	0	0	869
10	0	0	0	0	376
11	0	0	0	0	312
12	0	0	0	0	412
13	0	0	0	0	479
14	0	0	0	0	486
15	0	0	0	0	505
0	0	0	0	0	516
1	0	0	0	0	504
2	0	0	0	0	508
3	0	0	0	0	528
4	0	0	0	0	535
5	0	0	0	0	523
6	0	0	0	0	520
7	0	0	0	0	517
8	0	0	0	0	528
9	0	0	0	0	553
10	0	0	0	0	537
11	0	0	0	0	537
12	0	0	0	0	555
13	0	0	0	0	563
14	0	0	0	0	576
15	0	0	0	0	589
0	0	0	0	0	586
1	0	0	0	0	577
2	0	0	0	0	551
3	0	0	0	0	528
4	0	0	0	0	470
5	0	0	0	0	472
6	0	0	0	0	446
7	0	0	0	0	452
8	0	0	0	0	443
9	0	0	0	0	455
10	0	0	0	0	467
11	0	0	0	0	484
12	0	0	0	0	460
13	0	0	0	0	472
14	0	0	0	0	478
15	0	0	0	0	503
0	0	0	0	0	490
1	0	0	0	0	502
2	0	0	0	0	496
3	0	0	0	0	497
4	0	0	0	0	503
5	0	0	0	0	508
6	0	0	0	0	510
7	0	0	0	0	515
8	0	0	0	0	508
9	0	0	0	0	524
10	0	0	0	0	526
11	0	0	0	0	534
12	0	0	0	0	545
13	0	0	0	0	538
14	0	0	0	0	550
15	0	0	0	0	540
0	0	0	0	0	508
1	0	0	0	0	501
2	0	0	0	0	504
3	0	0	0	0	504
4	0	0	0	0	510
5	0	0	0	0	500
6	0	0	0	0	502
7	0	0	0	0	507
8	0	0	0	0	440
9	0	0	0	0	559
10	0	0	0	0	873
11	0	0	0	0	743
12	0	0	0	0	327
13	0	0	0	0	345
14	0	0	0	0	437
15	0	0	0	0	498
0	0	0	0	0	492
1	0	0	0	0	503
2	0	0	0	0	524
3	0	0	0	0	529
4	0	0	0	0	520
5	0	0	0	0	528
6	0	0	0	0	519
7	0	0	0	0	518
8	0	0	0	0	525
9	0	0	0	0	521
10	0	0	0	0	536
11	0	0	0	0	542
12	0	0	0	0	537
13	0	0	0	0	549
14	0	0	0	0	550
15	0	0	0	0	562
0	0	0	0	0	561
1	0	0	0	0	578
2	0	0	0	0	580
3	0	0	0	0	576
4	0	0	0	0	537
5	0	0	0	0	512
6	0	0	0	0	484
7	0	0	0	0	449
8	0	0	0	0	455
9	0	0	0	0	451
10	0	0	0	0	451
11	0	0	0	0	448
12	0	0	0	0	469
13	0	0	0	0	473
14	0	0	0	0	472
15	0	0	0	0	479
0	0	0	0	0	481
1	0	0	0	0	482
2	0	0	0	0	497
3	0	0	0	0	489
4	0	0	0	0	491
5	0	0	0	0	499
6	0	0	0	0	496
7	0	0	0	0	504
8	0	0	0	0	504
9	0	0	0	0	515
10	0	0	0	0	513
11	0	0	0	0	525
12	0	0	0	0	515
13	0	0	0	0	528
14	0	0	0	0	536
15	0	0	0	0	548
0	0	0	0	0	527
1	0	0	0	0	551
2	0	0	0	0	533
3	0	0	0	0	513
4	0	0	0	0	487
5	0	0	0	0	485
6	0	0	0	0	479
7	0	0	0	0	504
8	0	0	0	0	499
9	0	0	0	0	490
10	0	0	0	0	471
11	0	0	0	0	449
12	0	0	0	0	629
13	0	0	0	0	902
14	0	0	0	0	609
15	0	0	0	0	302
0	0	0	0	0	368
1	0	0	0	0	464
2	0	0	0	0	473
3	0	0	0	0	502
4	0	0	0	0	515
5	0	0	0	0	506
6	0	0	0	0	508
7	0	0	0	0	509
8	0	0	0	0	521
9	0	0	0	0	521
10	0	0	0	0	527
11	0	0	0	0	521
12	0	0	0	0	520
13	0	0	0	0	531
14	0	0	0	0	532
15	0	0	0	0	546
0	0	0	0	0	545
1	0	0	0	0	566
2	0	0	0	0	565
3	0	0	0	0	569
4	0	0	0	0	585
5	0	0	0	0	572
6	0	0	0	0	568
7	0	0	0	0	546
8	0	0	0	0	507
9	0	0	0	0	489
10	0	0	0	0	453
11	0	0	0	0	455
12	0	0	0	0	458
13	0	0	0	0	471
14	0	0	0	0	468
15	0	0	0	0	474
0	0	0	0	0	484
1	0	0	0	0	486
2	0	0	0	0	481
3	0	0	0	0	505
4	0	0	0	0	498
5	0	0	0	0	489
6	0	0	0	0	519
7	0	0	0	0	502
8	0	0	0	0	510
9	0	0	0	0	526
10	0	0	0	0	512
11	0	0	0	0	517
12	0	0	0	0	525
13	0	0	0	0	523
14	0	0	0	0	516
15	0	0	0	0	542
0	0	0	0	0	534
1	0	0	0	0	537
2	0	0	0	0	557
3	0	0	0	0	551
4	0	0	0	0	545
5	0	0	0	0	530
6	0	0	0	0	520
7	0	0	0	0	501
8	0	0	0	0	508
9	0	0	0	0	469
10	0	0	0	0	499
11	0	0	0	0	507
12	0	0	0	0	516
13	0	0	0	0	470
14	0	0	0	0	460
15	0	0	0	0	632
0	0	0	0	0	904
1	0	0	0	0	645
2	0	0	0	0	293
3	0	0	0	0	379
4	0	0	0	0	456
5	0	0	0	0	487
6	0	0	0	0	492
7	0	0	0	0	497
8	0	0	0	0	499
9	0	0	0	0	502
10	0	0	0	0	498
11	0	0	0	0	510
12	0	0	0	0	515
13	0	0	0	0	522
14	0	0	0	0	512
15	0	0	0	0	512
0	0	0	0	0	524
1	0	0	0	0	530
2	0	0	0	0	520
3	0	0	0	0	531
4	0	0	0	0	539
5	0	0	0	0	555
6	0	0	0	0	565
7	0	0	0	0	545
8	0	0	0	0	551
9	0	0	0	0	575
10	0	0	0	0	523
11	0	0	0	0	481
12	0	0	0	0	446
13	0	0	0	0	433
14	0	0	0	0	445
15	0	0	0	0	426
0	0	0	0	0	431
1	0	0	0	0	440
2	0	0	0	0	431
3	0	0	0	0	462
4	0	0	0	0	449
5	0	0	0	0	460
6	0	0	0	0	477
7	0	0	0	0	470
8	0	0	0	0	483
9	0	0	0	0	465
10	0	0	0	0	461
11	0	0	0	0	481
12	0	0	0	0	473
13	0	0	0	0	478
14	0	0	0	0	480
15	0	0	0	0	503
0	0	0	0	0	496
1	0	0	0	0	488
2	0	0	0	0	485
3	0	0	0	0	487
4	0	0	0	0	508
5	0	0	0	0	514
6	0	0	0	0	502
7	0	0	0	0	518
8	0	0	0	0	530
9	0	0	0	0	527
10	0	0	0	0	532
11	0	0	0	0	537
12	0	0	0	0	505
13	0	0	0	0	489
14	0	0	0	0	488
15	0	0	0	0	487
0	0	0	0	0	487
1	0	0	0	0	483
2	0	0	0	0	494
3	0	0	0	0	501
4	0	0	0	0	491
5	0	0	0	0	440
6	0	0	0	0	560
7	0	0	0	0	870
8	0	0	0	0	744
9	0	0	0	0	303
10	0	0	0	0	344
11	0	0	0	0	432
12	0	0	0	0	479
13	0	0	0	0	488
14	0	0	0	0	502
15	0	0	0	0	510
0	0	0	0	0	497
1	0	0	0	0	522
2	0	0	0	0	519
3	0	0	0	0	516
4	0	0	0	0	520
5	0	0	0	0	546
6	0	0	0	0	518
7	0	0	0	0	532
8	0	0	0	0	529
9	0	0	0	0	536
10	0	0	0	0	541
11	0	0	0	0	557
12	0	0	0	0	577
13	0	0	0	0	561
14	0	0	0	0	579
15	0	0	0	0	585
0	0	0	0	0	563
1	0	0	0	0	557
2	0	0	0	0	512
3	0	0	0	0	490
4	0	0	0	0	452
5	0	0	0	0	445
6	0	0	0	0	450
7	0	0	0	0	458
8	0	0	0	0	440
9	0	0	0	0	456
10	0	0	0	0	470
11	0	0	0	0	494
12	0	0	0	0	483
13	0	0	0	0	480
14	0	0	0	0	484
15	0	0	0	0	495
0	0	0	0	0	491
1	0	0	0	0	494
2	0	0	0	0	510
3	0	0	0	0	506
4	0	0	0	0	495
5	0	0	0	0	507
6	0	0	0	0	512
7	0	0	0	0	513
8	0	0	0	0	519
9	0	0	0	0	518
10	0	0	0	0	519
11	0	0	0	0	510
12	0	0	0	0	553
13	0	0	0	0	523
14	0	0	0	0	536
15	0	0	0	0	532
0	0	0	0	0	543
1	0	0	0	0	555
2	0	0	0	0	561
3	0	0	0	0	536
4	0	0	0	0	521
5	0	0	0	0	508
6	0	0	0	0	513
7	0	0	0	0	501
8	0	0	0	0	500
9	0	0	0	0	515
10	0	0	0	0	505
11	0	0	0	0	500
12	0	0	0	0	488
13	0	0	0	0	464
14	0	0	0	0	626
15	0	0	0	0	924
0	0	0	0	0	609
1	0	0	0	0	291
2	0	0	0	0	353
3	0	0	0	0	456
4	0	0	0	0	512
5	0	0	0	0	524
6	0	0	0	0	521
7	0	0	0	0	531
8	0	0	0	0	529
9	0	0	0	0	537
10	0	0	0	0	531
11	0	0	0	0	527
12	0	0	0	0	543
13	0	0	0	0	545
14	0	0	0	0	547
15	0	0	0	0	549
0	0	0	0	0	535
1	0	0	0	0	561
2	0	0	0	0	560
3	0	0	0	0	566
4	0	0	0	0	584
5	0	0	0	0	591
6	0	0	0	0	596
7	0	0	0	0	600
8	0	0	0	0	573
9	0	0	0	0	540
10	0	0	0	0	501
11	0	0	0	0	474
12	0	0	0	0	449
13	0	0	0	0	442
14	0	0	0	0	451
15	0	0	0	0	447
0	0	0	0	0	455
1	0	0	0	0	458
2	0	0	0	0	461
3	0	0	0	0	491
4	0	0	0	0	477
5	0	0	0	0	492
6	0	0	0	0	496
7	0	0	0	0	485
8	0	0	0	0	496
9	0	0	0	0	495
10	0	0	0	0	483
11	0	0	0	0	508
12	0	0	0	0	520
13	0	0	0	0	524
14	0	0	0	0	508
15	0	0	0	0	500
0	0	0	0	0	511
1	0	0	0	0	511
2	0	0	0	0	515
3	0	0	0	0	521
4	0	0	0	0	518
5	0	0	0	0	526
6	0	0	0	0	520
7	0	0	0	0	524
8	0	0	0	0	537
9	0	0	0	0	530
10	0	0	0	0	546
11	0	0	0	0	545
12	0	0	0	0	534
13	0	0	0	0	511
14	0	0	0	0	509
15	0	0	0	0	493
0	0	0	0	0	505
1	0	0	0	0	499
2	0	0	0	0	497
3	0	0	0	0	513
4	0	0	0	0	500
5	0	0	0	0	430
6	0	0	0	0	527
7	0	0	0	0	792
8	0	0	0	0	851
9	0	0	0	0	365
10	0	0	0	0	297
11	0	0	0	0	397
12	0	0	0	0	485
13	0	0	0	0	497
14	0	0	0	0	516
15	0	0	0	0	522
0	0	0	0	0	502
1	0	0	0	0	522
2	0	0	0	0	520
3	0	0	0	0	524
4	0	0	0	0	523
5	0	0	0	0	531
6	0	0	0	0	531
7	0	0	0	0	531
8	0	0	0	0	530
9	0	0	0	0	522
10	0	0	0	0	548
11	0	0	0	0	550
12	0	0	0	0	575
13	0	0	0	0	555
14	0	0	0	0	584
15	0	0	0	0	576
0	0	0	0	0	572
1	0	0	0	0	556
2	0	0	0	0	517
3	0	0	0	0	483
4	0	0	0	0	459
5	0	0	0	0	439
6	0	0	0	0	446
7	0	0	0	0	448
8	0	0	0	0	440
9	0	0	0	0	452
10	0	0	0	0	474
11	0	0	0	0	466
12	0	0	0	0	489
13	0	0	0	0	478
14	0	0	0	0	487
15	0	0	0	0	486
0	0	0	0	0	489
1	0	0	0	0	494
2	0	0	0	0	496
3	0	0	0	0	496
4	0	0	0	0	510
5	0	0	0	0	508
6	0	0	0	0	512
7	0	0	0	0	504
8	0	0	0	0	520
9	0	0	0	0	513
10	0	0	0	0	510
11	0	0	0	0	514
12	0	0	0	0	501
13	0	0	0	0	513
14	0	0	0	0	526
15	0	0	0	0	535
0	0	0	0	0	537
1	0	0	0	0	552
2	0	0	0	0	538
3	0	0	0	0	519
4	0	0	0	0	520
5	0	0	0	0	497
6	0	0	0	0	487
7	0	0	0	0	502
8	0	0	0	0	493
9	0	0	0	0	503
10	0	0	0	0	506
11	0	0	0	0	473
12	0	0	0	0	446
13	0	0	0	0	600
14	0	0	0	0	865
15	0	0	0	0	629
0	0	0	0	0	319
1	0	0	0	0	380
2	0	0	0	0	473
3	0	0	0	0	486
4	0	0	0	0	496
5	0	0	0	0	496
6	0	0	0	0	523
7	0	0	0	0	529
8	0	0	0	0	515
9	0	0	0	0	536
10	0	0	0	0	508
11	0	0	0	0	521
12	0	0	0	0	527
13	0	0	0	0	514
14	0	0	0	0	543
15	0	0	0	0	526
0	0	0	0	0	534
1	0	0	0	0	563
2	0	0	0	0	544
3	0	0	0	0	543
4	0	0	0	0	568
5	0	0	0	0	574
6	0	0	0	0	574
7	0	0	0	0	566
8	0	0	0	0	546
9	0	0	0	0	493
10	0	0	0	0	474
11	0	0	0	0	472
12	0	0	0	0	435
13	0	0	0	0	445
14	0	0	0	0	460
15	0	0	0	0	453
0	0	0	0	0	467
1	0	0	0	0	491
2	0	0	0	0	480
3	0	0	0	0	481
4	0	0	0	0	491
5	0	0	0	0	482
6	0	0	0	0	489
7	0	0	0	0	486
8	0	0	0	0	508
9	0	0	0	0	489
10	0	0	0	0	489
11	0	0	0	0	500
12	0	0	0	0	524
13	0	0	0	0	496
14	0	0	0	0	505
15	0	0	0	0	524
0	0	0	0	0	486
1	0	0	0	0	507
2	0	0	0	0	529
3	0	0	0	0	515
4	0	0	0	0	518
5	0	0	0	0	515
6	0	0	0	0	524
7	0	0	0	0	559
8	0	0	0	0	536
9	0	0	0	0	543
10	0	0	0	0	527
11	0	0	0	0	505
12	0	0	0	0	499
13	0	0	0	0	515
14	0	0	0	0	505
15	0	0	0	0	500
0	0	0	0	0	511
1	0	0	0	0	503
2	0	0	0	0	501
3	0	0	0	0	449
4	0	0	0	0	495
5	0	0	0	0	725
6	0	0	0	0	800
7	0	0	0	0	409
8	0	0	0	0	352
9	0	0	0	0	441
10	0	0	0	0	497
11	0	0	0	0	500
12	0	0	0	0	494
13	0	0	0	0	505
14	0	0	0	0	512
15	0	0	0	0	514
0	0	0	0	0	514
1	0	0	0	0	520
2	0	0	0	0	528
3	0	0	0	0	548
4	0	0	0	0	498
5	0	0	0	0	512
6	0	0	0	0	532
7	0	0	0	0	518
8	0	0	0	0	550
9	0	0	0	0	540
10	0	0	0	0	547
11	0	0	0	0	556
12	0	0	0	0	543
13	0	0	0	0	571
14	0	0	0	0	554
15	0	0	0	0	550
0	0	0	0	0	505
1	0	0	0	0	499
2	0	0	0	0	474
3	0	0	0	0	464
4	0	0	0	0	457
5	0	0	0	0	470
6	0	0	0	0	464
7	0	0	0	0	473
8	0	0	0	0	498
9	0	0	0	0	479
10	0	0	0	0	479
11	0	0	0	0	495
12	0	0	0	0	497
13	0	0	0	0	494
14	0	0	0	0	491
15	0	0	0	0	499
0	0	0	0	0	500
1	0	0	0	0	502
2	0	0	0	0	513
3	0	0	0	0	492
4	0	0	0	0	499
5	0	0	0	0	503
6	0	0	0	0	501
7	0	0	0	0	496
8	0	0	0	0	513
9	0	0	0	0	528
10	0	0	0	0	516
11	0	0	0	0	520
12	0	0	0	0	500
13	0	0	0	0	520
14	0	0	0	0	514
15	0	0	0	0	513
0	0	0	0	0	511
1	0	0	0	0	523
2	0	0	0	0	514
3	0	0	0	0	532
4	0	0	0	0	524
5	0	0	0	0	543
6	0	0	0	0	526
7	0	0	0	0	539
8	0	0	0	0	550
9	0	0	0	0	515
10	0	0	0	0	515
11	0	0	0	0	509
12	0	0	0	0	494
13	0	0	0	0	520
14	0	0	0	0	498
15	0	0	0	0	494
0	0	0	0	0	483
1	0	0	0	0	455
2	0	0	0	0	492
3	0	0	0	0	665
4	0	0	0	0	796
5	0	0	0	0	454
6	0	0	0	0	349
7	0	0	0	0	435
8	0	0	0	0	489
9	0	0	0	0	471
10	0	0	0	0	500
11	0	0	0	0	502
12	0	0	0	0	509
13	0	0	0	0	519
14	0	0	0	0	519
15	0	0	0	0	505
0	0	0	0	0	511
1	0	0	0	0	510
2	0	0	0	0	518
3	0	0	0	0	517
4	0	0	0	0	531
5	0	0	0	0	534
6	0	0	0	0	532
7	0	0	0	0	533
8	0	0	0	0	544
9	0	0	0	0	558
10	0	0	0	0	556
11	0	0	0	0	567
12	0	0	0	0	556
13	0	0	0	0	551
14	0	0	0	0	532
15	0	0	0	0	497
0	0	0	0	0	475
1	0	0	0	0	481
2	0	0	0	0	455
3	0	0	0	0	457
4	0	0	0	0	460
5	0	0	0	0	470
6	0	0	0	0	477
7	0	0	0	0	484
8	0	0	0	0	500
9	0	0	0	0	486
10	0	0	0	0	488
11	0	0	0	0	489
12	0	0	0	0	503
13	0	0	0	0	486
14	0	0	0	0	493
15	0	0	0	0	497
0	0	0	0	0	503
1	0	0	0	0	504
2	0	0	0	0	500
3	0	0	0	0	504
4	0	0	0	0	503
5	0	0	0	0	493
6	0	0	0	0	511
7	0	0	0	0	514
8	0	0	0	0	522
9	0	0	0	0	510
10	0	0	0	0	520
11	0	0	0	0	524
12	0	0	0	0	510
13	0	0	0	0	536
14	0	0	0	0	523
15	0	0	0	0	527
0	0	0	0	0	533
1	0	0	0	0	522
2	0	0	0	0	536
3	0	0	0	0	558
4	0	0	0	0	546
5	0	0	0	0	556
6	0	0	0	0	524
7	0	0	0	0	525
8	0	0	0	0	518
9	0	0	0	0	495
10	0	0	0	0	498
11	0	0	0	0	503
12	0	0	0	0	517
13	0	0	0	0	497
14	0	0	0	0	487
15	0	0	0	0	471
0	0	0	0	0	588
1	0	0	0	0	843
2	0	0	0	0	657
3	0	0	0	0	344
4	0	0	0	0	369
5	0	0	0	0	479
6	0	0	0	0	499
7	0	0	0	0	493
8	0	0	0	0	514
9	0	0	0	0	508
10	0	0	0	0	518
11	0	0	0	0	526
12	0	0	0	0	530
13	0	0	0	0	524
14	0	0	0	0	522
15	0	0	0	0	551
0	0	0	0	0	521
1	0	0	0	0	534
2	0	0	0	0	541
3	0	0	0	0	532
4	0	0	0	0	543
5	0	0	0	0	553
6	0	0	0	0	566
7	0	0	0	0	571
8	0	0	0	0	571
9	0	0	0	0	578
10	0	0	0	0	577
11	0	0	0	0	543
12	0	0	0	0	510
13	0	0	0	0	478
14	0	0	0	0	455
15	0	0	0	0	450
0	0	0	0	0	444
1	0	0	0	0	450
2	0	0	0	0	454
3	0	0	0	0	454
4	0	0	0	0	460
5	0	0	0	0	486
6	0	0	0	0	473
7	0	0	0	0	480
8	0	0	0	0	480
9	0	0	0	0	473
10	0	0	0	0	486
11	0	0	0	0	490
12	0	0	0	0	492
13	0	0	0	0	498
14	0	0	0	0	499
15	0	0	0	0	490
0	0	0	0	0	506
1	0	0	0	0	513
2	0	0	0	0	498
3	0	0	0	0	495
4	0	0	0	0	505
5	0	0	0	0	507
6	0	0	0	0	502
7	0	0	0	0	500
8	0	0	0	0	524
9	0	0	0	0	515
10	0	0	0	0	510
11	0	0	0	0	492
12	0	0	0	0	501
13	0	0	0	0	504
14	0	0	0	0	508
15	0	0	0	0	507
0	0	0	0	0	508
1	0	0	0	0	516
2	0	0	0	0	518
3	0	0	0	0	530
4	0	0	0	0	538
5	0	0	0	0	556
6	0	0	0	0	512
7	0	0	0	0	513
8	0	0	0	0	496
9	0	0	0	0	495
10	0	0	0	0	491
11	0	0	0	0	489
12	0	0	0	0	492
13	0	0	0	0	504
14	0	0	0	0	509
15	0	0	0	0	422
0	0	0	0	0	496
1	0	0	0	0	737
2	0	0	0	0	820
3	0	0	0	0	396
4	0	0	0	0	318
5	0	0	0	0	416
6	0	0	0	0	469
7	0	0	0	0	489
8	0	0	0	0	507
9	0	0	0	0	506
10	0	0	0	0	493
11	0	0	0	0	512
12	0	0	0	0	502
13	0	0	0	0	509
14	0	0	0	0	526
15	0	0	0	0	509
0	0	0	0	0	515
1	0	0	0	0	528
2	0	0	0	0	527
3	0	0	0	0	519
4	0	0	0	0	532
5	0	0	0	0	543
6	0	0	0	0	550
7	0	0	0	0	553
8	0	0	0	0	556
9	0	0	0	0	575
10	0	0	0	0	569
11	0	0	0	0	555
12	0	0	0	0	530
13	0	0	0	0	492
14	0	0	0	0	472
15	0	0	0	0	456
0	0	0	0	0	457
1	0	0	0	0	461
2	0	0	0	0	452
3	0	0	0	0	462
4	0	0	0	0	473
5	0	0	0	0	471
6	0	0	0	0	479
7	0	0	0	0	481
8	0	0	0	0	492
9	0	0	0	0	491
10	0	0	0	0	496
11	0	0	0	0	489
12	0	0	0	0	506
13	0	0	0	0	499
14	0	0	0	0	509
15	0	0	0	0	513
0	0	0	0	0	496
1	0	0	0	0	505
2	0	0	0	0	509
3	0	0	0	0	507
4	0	0	0	0	519
5	0	0	0	0	516
6	0	0	0	0	522
7	0	0	0	0	509
8	0	0	0	0	510
9	0	0	0	0	524
10	0	0	0	0	532
11	0	0	0	0	527
12	0	0	0	0	545
13	0	0	0	0	546
14	0	0	0	0	540
15	0	0	0	0	546
0	0	0	0	0	537
1	0	0	0	0	506
2	0	0	0	0	492
3	0	0	0	0	492
4	0	0	0	0	499
5	0	0	0	0	511
6	0	0	0	0	499
7	0	0	0	0	505
8	0	0	0	0	461
9	0	0	0	0	485
10	0	0	0	0	723
11	0	0	0	0	873
12	0	0	0	0	437
13	0	0	0	0	317
14	0	0	0	0	418
15	0	0	0	0	469
0	0	0	0	0	499
1	0	0	0	0	506
2	0	0	0	0	506
3	0	0	0	0	517
4	0	0	0	0	503
5	0	0	0	0	527
6	0	0	0	0	518
7	0	0	0	0	527
8	0	0	0	0	522
9	0	0	0	0	520
10	0	0	0	0	528
11	0	0	0	0	530
12	0	0	0	0	538
13	0	0	0	0	538
14	0	0	0	0	536
15	0	0	0	0	551
0	0	0	0	0	562
1	0	0	0	0	566
2	0	0	0	0	583
3	0	0	0	0	568
4	0	0	0	0	555
5	0	0	0	0	517
6	0	0	0	0	499
7	0	0	0	0	471
8	0	0	0	0	454
9	0	0	0	0	447
10	0	0	0	0	451
11	0	0	0	0	445
12	0	0	0	0	455
13	0	0	0	0	476
14	0	0	0	0	476
15	0	0	0	0	481
0	0	0	0	0	484
1	0	0	0	0	487
2	0	0	0	0	480
3	0	0	0	0	498
4	0	0	0	0	488
5	0	0	0	0	484
6	0	0	0	0	505
7	0	0	0	0	515
8	0	0	0	0	503
9	0	0	0	0	503
10	0	0	0	0	508
11	0	0	0	0	503
12	0	0	0	0	505
13	0	0	0	0	508
14	0	0	0	0	511
15	0	0	0	0	531
0	0	0	0	0	517
1	0	0	0	0	510
2	0	0	0	0	517
3	0	0	0	0	523
4	0	0	0	0	533
5	0	0	0	0	540
6	0	0	0	0	550
7	0	0	0	0	547
8	0	0	0	0	542
9	0	0	0	0	535
10	0	0	0	0	498
11	0	0	0	0	486
12	0	0	0	0	486
13	0	0	0	0	502
14	0	0	0	0	499
15	0	0	0	0	491
0	0	0	0	0	493
1	0	0	0	0	465
2	0	0	0	0	465
3	0	0	0	0	680
4	0	0	0	0	891
5	0	0	0	0	496
6	0	0	0	0	313
7	0	0	0	0	399
8	0	0	0	0	471
9	0	0	0	0	484
10	0	0	0	0	497
11	0	0	0	0	508
12	0	0	0	0	521
13	0	0	0	0	511
14	0	0	0	0	516
15	0	0	0	0	512
0	0	0	0	0	526
1	0	0	0	0	511
2	0	0	0	0	519
3	0	0	0	0	535
4	0	0	0	0	529
5	0	0	0	0	534
6	0	0	0	0	546
7	0	0	0	0	556
8	0	0	0	0	543
9	0	0	0	0	566
10	0	0	0	0	578
11	0	0	0	0	591
12	0	0	0	0	563
13	0	0	0	0	575
14	0	0	0	0	550
15	0	0	0	0	498
0	0	0	0	0	470
1	0	0	0	0	450
2	0	0	0	0	439
3	0	0	0	0	452
4	0	0	0	0	464
5	0	0	0	0	473
6	0	0	0	0	448
7	0	0	0	0	463
8	0	0	0	0	491
9	0	0	0	0	485
10	0	0	0	0	495
11	0	0	0	0	484
12	0	0	0	0	480
13	0	0	0	0	508
14	0	0	0	0	489
15	0	0	0	0	486
0	0	0	0	0	505
1	0	0	0	0	495
2	0	0	0	0	508
3	0	0	0	0	515
4	0	0	0	0	504
5	0	0	0	0	521
6	0	0	0	0	490
7	0	0	0	0	534
8	0	0	0	0	526
9	0	0	0	0	526
10	0	0	0	0	523
11	0	0	0	0	550
12	0	0	0	0	551
13	0	0	0	0	557
14	0	0	0	0	540
15	0	0	0	0	504
0	0	0	0	0	495
1	0	0	0	0	502
2	0	0	0	0	485
3	0	0	0	0	496
4	0	0	0	0	504
5	0	0	0	0	512
6	0	0	0	0	487
7	0	0	0	0	440
8	0	0	0	0	487
9	0	0	0	0	767
10	0	0	0	0	844
11	0	0	0	0	384
12	0	0	0	0	318
13	0	0	0	0	411
14	0	0	0	0	497
15	0	0	0	0	516
0	0	0	0	0	508
1	0	0	0	0	512
2	0	0	0	0	511
3	0	0	0	0	514
4	0	0	0	0	535
5	0	0	0	0	526
6	0	0	0	0	525
7	0	0	0	0	532
8	0	0	0	0	526
9	0	0	0	0	528
10	0	0	0	0	555
11	0	0	0	0	538
12	0	0	0	0	549
13	0	0	0	0	566
14	0	0	0	0	553
15	0	0	0	0	571
0	0	0	0	0	593
1	0	0	0	0	591
2	0	0	0	0	577
3	0	0	0	0	556
4	0	0	0	0	523
5	0	0	0	0	488
6	0	0	0	0	451
7	0	0	0	0	440
8	0	0	0	0	446
9	0	0	0	0	436
10	0	0	0	0	444
11	0	0	0	0	463
12	0	0	0	0	458
13	0	0	0	0	475
14	0	0	0	0	482
15	0	0	0	0	467
0	0	0	0	0	489
1	0	0	0	0	483
2	0	0	0	0	482
3	0	0	0	0	498
4	0	0	0	0	497
5	0	0	0	0	489
6	0	0	0	0	515
7	0	0	0	0	501
8	0	0	0	0	502
9	0	0	0	0	510
10	0	0	0	0	515
11	0	0	0	0	517
12	0	0	0	0	510
13	0	0	0	0	522
14	0	0	0	0	527
15	0	0	0	0	533
0	0	0	0	0	537
1	0	0	0	0	558
2	0	0	0	0	547
3	0	0	0	0	521
4	0	0	0	0	507
5	0	0	0	0	497
6	0	0	0	0	491
7	0	0	0	0	500
8	0	0	0	0	495
9	0	0	0	0	512
10	0	0	0	0	496
11	0	0	0	0	477
12	0	0	0	0	445
13	0	0	0	0	579
14	0	0	0	0	883
15	0	0	0	0	699
0	0	0	0	0	333
1	0	0	0	0	356
2	0	0	0	0	448
3	0	0	0	0	492
4	0	0	0	0	493
5	0	0	0	0	506
6	0	0	0	0	503
7	0	0	0	0	512
8	0	0	0	0	518
9	0	0	0	0	516
10	0	0	0	0	526
11	0	0	0	0	527
12	0	0	0	0	525
13	0	0	0	0	529
14	0	0	0	0	521
15	0	0	0	0	537
0	0	0	0	0	544
1	0	0	0	0	546
2	0	0	0	0	555
3	0	0	0	0	564
4	0	0	0	0	572
5	0	0	0	0	578
6	0	0	0	0	575
7	0	0	0	0	571
8	0	0	0	0	539
9	0	0	0	0	502
10	0	0	0	0	474
11	0	0	0	0	452
12	0	0	0	0	444
13	0	0	0	0	454
14	0	0	0	0	458
15	0	0	0	0	464
0	0	0	0	0	454
1	0	0	0	0	469
2	0	0	0	0	473
3	0	0	0	0	490
4	0	0	0	0	481
5	0	0	0	0	484
6	0	0	0	0	492
7	0	0	0	0	496
8	0	0	0	0	491
9	0	0	0	0	493
10	0	0	0	0	502
11	0	0	0	0	513
12	0	0	0	0	509
13	0	0	0	0	518
14	0	0	0	0	498
15	0	0	0	0	511
0	0	0	0	0	520
1	0	0	0	0	516
2	0	0	0	0	524
3	0	0	0	0	538
4	0	0	0	0	539
5	0	0	0	0	547
6	0	0	0	0	543
7	0	0	0	0	547
8	0	0	0	0	522
9	0	0	0	0	510
10	0	0	0	0	505
11	0	0	0	0	489
12	0	0	0	0	495
13	0	0	0	0	500
14	0	0	0	0	498
15	0	0	0	0	500
0	0	0	0	0	478
1	0	0	0	0	446
2	0	0	0	0	608
3	0	0	0	0	888
4	0	0	0	0	694
5	0	0	0	0	343
6	0	0	0	0	376
7	0	0	0	0	467
8	0	0	0	0	492
9	0	0	0	0	509
10	0	0	0	0	498
11	0	0	0	0	504
12	0	0	0	0	521
13	0	0	0	0	518
14	0	0	0	0	521
15	0	0	0	0	532
0	0	0	0	0	525
1	0	0	0	0	543
2	0	0	0	0	538
3	0	0	0	0	550
4	0	0	0	0	541
5	0	0	0	0	547
6	0	0	0	0	549
7	0	0	0	0	572
8	0	0	0	0	568
9	0	0	0	0	595
10	0	0	0	0	592
11	0	0	0	0	580
12	0	0	0	0	582
13	0	0	0	0	558
14	0	0	0	0	513
15	0	0	0	0	486
0	0	0	0	0	474
1	0	0	0	0	462
2	0	0	0	0	470
3	0	0	0	0	473
4	0	0	0	0	478
5	0	0	0	0	489
6	0	0	0	0	488
7	0	0	0	0	491
8	0	0	0	0	492
9	0	0	0	0	504
10	0	0	0	0	495
11	0	0	0	0	499
12	0	0	0	0	508
13	0	0	0	0	514
14	0	0	0	0	502
15	0	0	0	0	513
0	0	0	0	0	519
1	0	0	0	0	519
2	0	0	0	0	511
3	0	0	0	0	515
4	0	0	0	0	519
5	0	0	0	0	510
6	0	0	0	0	526
7	0	0	0	0	521
8	0	0	0	0	518
9	0	0	0	0	520
10	0	0	0	0	520
11	0	0	0	0	531
12	0	0	0	0	534
13	0	0	0	0	543
14	0	0	0	0	542
15	0	0	0	0	547
0	0	0	0	0	551
1	0	0	0	0	525
2	0	0	0	0	507
3	0	0	0	0	498
4	0	0	0	0	480
5	0	0	0	0	484
6	0	0	0	0	483
7	0	0	0	0	493
8	0	0	0	0	504
9	0	0	0	0	496
10	0	0	0	0	421
11	0	0	0	0	515
12	0	0	0	0	803
13	0	0	0	0	817
14	0	0	0	0	371
15	0	0	0	0	336
0	0	0	0	0	427
1	0	0	0	0	464
2	0	0	0	0	477
3	0	0	0	0	486
4	0	0	0	0	481
5	0	0	0	0	499
6	0	0	0	0	498
7	0	0	0	0	508
8	0	0	0	0	495
9	0	0	0	0	508
10	0	0	0	0	498
11	0	0	0	0	512
12	0	0	0	0	508
13	0	0	0	0	520
14	0	0	0	0	516
15	0	0	0	0	527
0	0	0	0	0	534
1	0	0	0	0	547
2	0	0	0	0	555
3	0	0	0	0	563
4	0	0	0	0	579
5	0	0	0	0	565
6	0	0	0	0	536
7	0	0	0	0	507
8	0	0	0	0	489
9	0	0	0	0	447
10	0	0	0	0	415
11	0	0	0	0	429
12	0	0	0	0	429
13	0	0	0	0	455
14	0	0	0	0	447
15	0	0	0	0	457
0	0	0	0	0	464
1	0	0	0	0	459
2	0	0	0	0	454
3	0	0	0	0	480
4	0	0	0	0	481
5	0	0	0	0	476
6	0	0	0	0	484
7	0	0	0	0	482
8	0	0	0	0	487
9	0	0	0	0	506
10	0	0	0	0	492
11	0	0	0	0	497
12	0	0	0	0	497
13	0	0	0	0	489
14	0	0	0	0	496
15	0	0	0	0	507
0	0	0	0	0	505
1	0	0	0	0	505
2	0	0	0	0	503
3	0	0	0	0	512
4	0	0	0	0	520
5	0	0	0	0	511
6	0	0	0	0	515
7	0	0	0	0	526
8	0	0	0	0	550
9	0	0	0	0	532
10	0	0	0	0	541
11	0	0	0	0	527
12	0	0	0	0	504
13	0	0	0	0	483
14	0	0	0	0	491
15	0	0	0	0	504
0	0	0	0	0	480
1	0	0	0	0	497
2	0	0	0	0	504
3	0	0	0	0	489
4	0	0	0	0	432
5	0	0	0	0	464
6	0	0	0	0	708
7	0	0	0	0	899
8	0	0	0	0	462
9	0	0	0	0	298
10	0	0	0	0	380
11	0	0	0	0	471
12	0	0	0	0	500
13	0	0	0	0	499
14	0	0	0	0	507
15	0	0	0	0	507
0	0	0	0	0	527
1	0	0	0	0	519
2	0	0	0	0	514
3	0	0	0	0	521
4	0	0	0	0	524
5	0	0	0	0	526
6	0	0	0	0	520
7	0	0	0	0	529
8	0	0	0	0	541
9	0	0	0	0	543
10	0	0	0	0	550
11	0	0	0	0	565
12	0	0	0	0	574
13	0	0	0	0	579
14	0	0	0	0	596
15	0	0	0	0	587
0	0	0	0	0	551
1	0	0	0	0	529
2	0	0	0	0	500
3	0	0	0	0	457
4	0	0	0	0	431
5	0	0	0	0	434
6	0	0	0	0	445
7	0	0	0	0	443
8	0	0	0	0	451
9	0	0	0	0	465
10	0	0	0	0	468
11	0	0	0	0	477
12	0	0	0	0	467
13	0	0	0	0	488
14	0	0	0	0	480
15	0	0	0	0	482
0	0	0	0	0	492
1	0	0	0	0	499
2	0	0	0	0	498
3	0	0	0	0	513
4	0	0	0	0	501
5	0	0	0	0	512
6	0	0	0	0	518
7	0	0	0	0	511
8	0	0	0	0	514
9	0	0	0	0	504
10	0	0	0	0	516
11	0	0	0	0	527
12	0	0	0	0	512
13	0	0	0	0	536
14	0	0	0	0	531
15	0	0	0	0	519
0	0	0	0	0	528
1	0	0	0	0	544
2	0	0	0	0	552
3	0	0	0	0	543
4	0	0	0	0	544
5	0	0	0	0	519
6	0	0	0	0	501
7	0	0	0	0	514
8	0	0	0	0	499
9	0	0	0	0	489
10	0	0	0	0	500
11	0	0	0	0	492
12	0	0	0	0	511
13	0	0	0	0	476
14	0	0	0	0	452
15	0	0	0	0	588
0	0	0	0	0	889
1	0	0	0	0	678
2	0	0	0	0	324
3	0	0	0	0	366
4	0	0	0	0	451
5	0	0	0	0	497
6	0	0	0	0	503
7	0	0	0	0	509
8	0	0	0	0	508
9	0	0	0	0	517
10	0	0	0	0	513
11	0	0	0	0	526
12	0	0	0	0	517
13	0	0	0	0	526
14	0	0	0	0	541
15	0	0	0	0	527
0	0	0	0	0	534
1	0	0	0	0	535
2	0	0	0	0	548
3	0	0	0	0	543
4	0	0	0	0	568
5	0	0	0	0	568
6	0	0	0	0	583
7	0	0	0	0	599
8	0	0	0	0	575
9	0	0	0	0	585
10	0	0	0	0	545
11	0	0	0	0	502
12	0	0	0	0	471
13	0	0	0	0	451
14	0	0	0	0	447
15	0	0	0	0	439
0	0	0	0	0	453
1	0	0	0	0	447
2	0	0	0	0	464
3	0	0	0	0	463
4	0	0	0	0	482
5	0	0	0	0	477
6	0	0	0	0	485
7	0	0	0	0	487
8	0	0	0	0	486
9	0	0	0	0	490
10	0	0	0	0	494
11	0	0	0	0	487
12	0	0	0	0	504
13	0	0	0	0	510
14	0	0	0	0	504
15	0	0	0	0	514
0	0	0	0	0	509
1	0	0	0	0	508
2	0	0	0	0	496
3	0	0	0	0	521
4	0	0	0	0	520
5	0	0	0	0	514
6	0	0	0	0	517
7	0	0	0	0	503
8	0	0	0	0	511
9	0	0	0	0	524
10	0	0	0	0	528
11	0	0	0	0	524
12	0	0	0	0	526
13	0	0	0	0	538
14	0	0	0	0	549
15	0	0	0	0	550
0	0	0	0	0	549
1	0	0	0	0	519
2	0	0	0	0	497
3	0	0	0	0	501
4	0	0	0	0	502
5	0	0	0	0	514
6	0	0	0	0	497
7	0	0	0	0	504
8	0	0	0	0	503
9	0	0	0	0	469
10	0	0	0	0	445
11	0	0	0	0	621
12	0	0	0	0	886
13	0	0	0	0	650
14	0	0	0	0	324
15	0	0	0	0	359
0	0	0	0	0	455
1	0	0	0	0	483
2	0	0	0	0	508
3	0	0	0	0	510
4	0	0	0	0	510
5	0	0	0	0	513
6	0	0	0	0	524
7	0	0	0	0	520
8	0	0	0	0	504
9	0	0	0	0	519
10	0	0	0	0	517
11	0	0	0	0	536
12	0	0	0	0	531
13	0	0	0	0	538
14	0	0	0	0	546
15	0	0	0	0	548
0	0	0	0	0	553
1	0	0	0	0	576
2	0	0	0	0	591
3	0	0	0	0	559
4	0	0	0	0	599
5	0	0	0	0	572
6	0	0	0	0	541
7	0	0	0	0	506
8	0	0	0	0	461
9	0	0	0	0	455
10	0	0	0	0	440
11	0	0	0	0	452
12	0	0	0	0	453
13	0	0	0	0	455
14	0	0	0	0	462
15	0	0	0	0	481
0	0	0	0	0	475
1	0	0	0	0	482
2	0	0	0	0	483
3	0	0	0	0	483
4	0	0	0	0	475
5	0	0	0	0	499
6	0	0	0	0	505
7	0	0	0	0	512
8	0	0	0	0	503
9	0	0	0	0	502
10	0	0	0	0	493
11	0	0	0	0	497
12	0	0	0	0	511
13	0	0	0	0	523
14	0	0	0	0	521
15	0	0	0	0	521
0	0	0	0	0	503
1	0	0	0	0	504
2	0	0	0	0	528
3	0	0	0	0	526
4	0	0	0	0	519
5	0	0	0	0	532
6	0	0	0	0	497
7	0	0	0	0	525
8	0	0	0	0	517
9	0	0	0	0	521
10	0	0	0	0	541
11	0	0	0	0	550
12	0	0	0	0	525
13	0	0	0	0	533
14	0	0	0	0	535
15	0	0	0	0	529
0	0	0	0	0	506
1	0	0	0	0	508
2	0	0	0	0	509
3	0	0	0	0	516
4	0	0	0	0	484
5	0	0	0	0	499
6	0	0	0	0	507
7	0	0	0	0	486
8	0	0	0	0	465
9	0	0	0	0	591
10	0	0	0	0	821
11	0	0	0	0	636
12	0	0	0	0	311
13	0	0	0	0	370
14	0	0	0	0	464
15	0	0	0	0	484
0	0	0	0	0	498
1	0	0	0	0	513
2	0	0	0	0	513
3	0	0	0	0	515
4	0	0	0	0	500
5	0	0	0	0	518
6	0	0	0	0	509
7	0	0	0	0	509
8	0	0	0	0	530
9	0	0	0	0	522
10	0	0	0	0	535
11	0	0	0	0	522
12	0	0	0	0	525
13	0	0	0	0	544
14	0	0	0	0	532
15	0	0	0	0	561
0	0	0	0	0	556
1	0	0	0	0	552
2	0	0	0	0	554
3	0	0	0	0	555
4	0	0	0	0	552
5	0	0	0	0	491
6	0	0	0	0	474
7	0	0	0	0	487
8	0	0	0	0	459
9	0	0	0	0	458
10	0	0	0	0	449
11	0	0	0	0	463
12	0	0	0	0	476
13	0	0	0	0	481
14	0	0	0	0	480
15	0	0	0	0	487
0	0	0	0	0	489
1	0	0	0	0	492
2	0	0	0	0	481
3	0	0	0	0	485
4	0	0	0	0	485
5	0	0	0	0	491
6	0	0	0	0	494
7	0	0	0	0	511
8	0	0	0	0	497
9	0	0	0	0	504
10	0	0	0	0	505
11	0	0	0	0	506
12	0	0	0	0	501
13	0	0	0	0	524
14	0	0	0	0	515
15	0	0	0	0	509
0	0	0	0	0	512
1	0	0	0	0	523
2	0	0	0	0	507
3	0	0	0	0	524
4	0	0	0	0	504
5	0	0	0	0	525
6	0	0	0	0	519
7	0	0	0	0	524
8	0	0	0	0	528
9	0	0	0	0	527
10	0	0	0	0	520
11	0	0	0	0	539
12	0	0	0	0	542
13	0	0	0	0	540
14	0	0	0	0	541
15	0	0	0	0	519
0	0	0	0	0	515
1	0	0	0	0	504
2	0	0	0	0	499
3	0	0	0	0	503
4	0	0	0	0	503
5	0	0	0	0	510
6	0	0	0	0	498
7	0	0	0	0	472
8	0	0	0	0	504
9	0	0	0	0	746
10	0	0	0	0	828
11	0	0	0	0	421
12	0	0	0	0	345
13	0	0	0	0	423
14	0	0	0	0	486
15	0	0	0	0	528
0	0	0	0	0	507
1	0	0	0	0	515
2	0	0	0	0	524
3	0	0	0	0	517
4	0	0	0	0	529
5	0	0	0	0	525
6	0	0	0	0	537
7	0	0	0	0	540
8	0	0	0	0	523
9	0	0	0	0	532
10	0	0	0	0	540
11	0	0	0	0	532
12	0	0	0	0	568
13	0	0	0	0	544
14	0	0	0	0	560
15	0	0	0	0	569
0	0	0	0	0	592
1	0	0	0	0	567
2	0	0	0	0	572
3	0	0	0	0	564
4	0	0	0	0	537
5	0	0	0	0	500
6	0	0	0	0	476
7	0	0	0	0	466
8	0	0	0	0	453
9	0	0	0	0	451
10	0	0	0	0	457
11	0	0	0	0	470
12	0	0	0	0	473
13	0	0	0	0	494
14	0	0	0	0	485
15	0	0	0	0	485
0	0	0	0	0	492
1	0	0	0	0	472
2	0	0	0	0	495
3	0	0	0	0	505
4	0	0	0	0	502
5	0	0	0	0	494
6	0	0	0	0	478
7	0	0	0	0	499
8	0	0	0	0	493
9	0	0	0	0	480
10	0	0	0	0	480
11	0	0	0	0	496
12	0	0	0	0	511
13	0	0	0	0	488
14	0	0	0	0	480
15	0	0	0	0	498
0	0	0	0	0	502
1	0	0	0	0	504
2	0	0	0	0	498
3	0	0	0	0	480
4	0	0	0	0	491
5	0	0	0	0	486
6	0	0	0	0	510
7	0	0	0	0	513
8	0	0	0	0	491
9	0	0	0	0	499
10	0	0	0	0	497
11	0	0	0	0	479
12	0	0	0	0	508
13	0	0	0	0	503
14	0	0	0	0	513
15	0	0	0	0	508
0	0	0	0	0	523
1	0	0	0	0	517
2	0	0	0	0	509
3	0	0	0	0	525
4	0	0	0	0	518
5	0	0	0	0	504
6	0	0	0	0	491
7	0	0	0	0	492
8	0	0	0	0	485
9	0	0	0	0	485
10	0	0	0	0	491
11	0	0	0	0	481
12	0	0	0	0	477
13	0	0	0	0	446
14	0	0	0	0	443
15	0	0	0	0	658
0	0	0	0	0	866
1	0	0	0	0	506
2	0	0	0	0	280
3	0	0	0	0	368
4	0	0	0	0	440
5	0	0	0	0	464
6	0	0	0	0	471
7	0	0	0	0	500
8	0	0	0	0	476
9	0	0	0	0	487
10	0	0	0	0	481
11	0	0	0	0	502
12	0	0	0	0	505
13	0	0	0	0	501
14	0	0	0	0	500
15	0	0	0	0	509
0	0	0	0	0	515
1	0	0	0	0	515
2	0	0	0	0	512
3	0	0	0	0	527
4	0	0	0	0	530
5	0	0	0	0	528
6	0	0	0	0	547
7	0	0	0	0	565
8	0	0	0	0	580
9	0	0	0	0	562
10	0	0	0	0	529
11	0	0	0	0	500
12	0	0	0	0	475
13	0	0	0	0	444
14	0	0	0	0	421
15	0	0	0	0	436
0	0	0	0	0	449
1	0	0	0	0	447
2	0	0	0	0	485
3	0	0	0	0	475
4	0	0	0	0	481
5	0	0	0	0	464
6	0	0	0	0	488
7	0	0	0	0	511
8	0	0	0	0	483
9	0	0	0	0	494
10	0	0	0	0	484
11	0	0	0	0	492
12	0	0	0	0	502
13	0	0	0	0	524
14	0	0	0	0	519
15	0	0	0	0	525
0	0	0	0	0	519
1	0	0	0	0	529
2	0	0	0	0	517
3	0	0	0	0	545
4	0	0	0	0	525
5	0	0	0	0	545
6	0	0	0	0	519
7	0	0	0	0	537
8	0	0	0	0	517
9	0	0	0	0	537
10	0	0	0	0	526
11	0	0	0	0	529
12	0	0	0	0	519
13	0	0	0	0	536
14	0	0	0	0	534
15	0	0	0	0	540
0	0	0	0	0	542
1	0	0	0	0	555
2	0	0	0	0	520
3	0	0	0	0	530
4	0	0	0	0	534
5	0	0	0	0	520
6	0	0	0	0	513
7	0	0	0	0	507
8	0	0	0	0	486
9	0	0	0	0	500
10	0	0	0	0	518
11	0	0	0	0	523
12	0	0	0	0	522
13	0	0	0	0	533
14	0	0	0	0	534
15	0	0	0	0	539
0	0	0	0	0	522
1	0	0	0	0	519
2	0	0	0	0	542
3	0	0	0	0	544
4	0	0	0	0	522
5	0	0	0	0	493
6	0	0	0	0	510
7	0	0	0	0	479
8	0	0	0	0	500
9	0	0	0	0	512
10	0	0	0	0	503
11	0	0	0	0	499
12	0	0	0	0	444
13	0	0	0	0	625
14	0	0	0	0	872
15	0	0	0	0	680
0	0	0	0	0	327
1	0	0	0	0	376
2	0	0	0	0	467
3	0	0	0	0	494
4	0	0	0	0	482
5	0	0	0	0	513
6	0	0	0	0	505
7	0	0	0	0	505
8	0	0	0	0	508
9	0	0	0	0	532
10	0	0	0	0	504
11	0	0	0	0	525
12	0	0	0	0	537
13	0	0	0	0	521
14	0	0	0	0	528
15	0	0	0	0	536
0	0	0	0	0	530
1	0	0	0	0	543
2	0	0	0	0	561
3	0	0	0	0	575
4	0	0	0	0	556
5	0	0	0	0	587
6	0	0	0	0	589
7	0	0	0	0	583
8	0	0	0	0	572
9	0	0	0	0	542
10	0	0	0	0	484
11	0	0	0	0	497
12	0	0	0	0	464
13	0	0	0	0	468
14	0	0	0	0	452
15	0	0	0	0	462
0	0	0	0	0	481
1	0	0	0	0	487
2	0	0	0	0	461
3	0	0	0	0	485
4	0	0	0	0	495
5	0	0	0	0	517
6	0	0	0	0	493
7	0	0	0	0	502
8	0	0	0	0	493
9	0	0	0	0	494
10	0	0	0	0	498
11	0	0	0	0	499
12	0	0	0	0	516
13	0	0	0	0	510
14	0	0	0	0	503
15	0	0	0	0	510
0	0	0	0	0	510
1	0	0	0	0	531
2	0	0	0	0	519
3	0	0	0	0	508
4	0	0	0	0	533
5	0	0	0	0	531
6	0	0	0	0	528
7	0	0	0	0	495
8	0	0	0	0	517
9	0	0	0	0	524
10	0	0	0	0	529
11	0	0	0	0	533
12	0	0	0	0	542
13	0	0	0	0	518
14	0	0	0	0	524
15	0	0	0	0	529
0	0	0	0	0	527
1	0	0	0	0	517
2	0	0	0	0	515
3	0	0	0	0	519
4	0	0	0	0	531
5	0	0	0	0	550
6	0	0	0	0	548
7	0	0	0	0	536
8	0	0	0	0	546
9	0	0	0	0	546
10	0	0	0	0	535
11	0	0	0	0	549
12	0	0	0	0	546
13	0	0	0	0	529
14	0	0	0	0	512
15	0	0	0	0	490
0	0	0	0	0	499
1	0	0	0	0	499
2	0	0	0	0	504
3	0	0	0	0	511
4	0	0	0	0	504
5	0	0	0	0	451
6	0	0	0	0	551
7	0	0	0	0	849
8	0	0	0	0	764
9	0	0	0	0	325
10	0	0	0	0	356
11	0	0	0	0	448
12	0	0	0	0	476
13	0	0	0	0	493
14	0	0	0	0	504
15	0	0	0	0	496
0	0	0	0	0	511
1	0	0	0	0	510
2	0	0	0	0	519
3	0	0	0	0	521
4	0	0	0	0	519
5	0	0	0	0	519
6	0	0	0	0	544
7	0	0	0	0	539
8	0	0	0	0	522
9	0	0	0	0	534
10	0	0	0	0	537
11	0	0	0	0	553
12	0	0	0	0	572
13	0	0	0	0	568
14	0	0	0	0	575
15	0	0	0	0	571
0	0	0	0	0	572
1	0	0	0	0	568
2	0	0	0	0	537
3	0	0	0	0	492
4	0	0	0	0	487
5	0	0	0	0	455
6	0	0	0	0	449
7	0	0	0	0	450
8	0	0	0	0	465
9	0	0	0	0	453
10	0	0	0	0	470
11	0	0	0	0	473
12	0	0	0	0	478
13	0	0	0	0	495
14	0	0	0	0	478
15	0	0	0	0	485
0	0	0	0	0	497
1	0	0	0	0	496
2	0	0	0	0	512
3	0	0	0	0	488
4	0	0	0	0	496
5	0	0	0	0	511
6	0	0	0	0	508
7	0	0	0	0	502
8	0	0	0	0	498
9	0	0	0	0	505
10	0	0	0	0	508
11	0	0	0	0	512
12	0	0	0	0	505
13	0	0	0	0	517
14	0	0	0	0	510
15	0	0	0	0	515
0	0	0	0	0	516
1	0	0	0	0	516
2	0	0	0	0	509
3	0	0	0	0	513
4	0	0	0	0	512
5	0	0	0	0	525
6	0	0	0	0	519
7	0	0	0	0	509
8	0	0	0	0	526
9	0	0	0	0	516
10	0	0	0	0	524
11	0	0	0	0	515
12	0	0	0	0	532
13	0	0	0	0	546
14	0	0	0	0	546
15	0	0	0	0	551
0	0	0	0	0	527
1	0	0	0	0	515
2	0	0	0	0	499
3	0	0	0	0	501
4	0	0	0	0	499
5	0	0	0	0	495
6	0	0	0	0	496
7	0	0	0	0	484
8	0	0	0	0	504
9	0	0	0	0	441
10	0	0	0	0	507
11	0	0	0	0	783
12	0	0	0	0	862
13	0	0	0	0	369
14	0	0	0	0	294
15	0	0	0	0	424
0	0	0	0	0	483
1	0	0	0	0	480
2	0	0	0	0	489
3	0	0	0	0	506
4	0	0	0	0	508
5	0	0	0	0	516
6	0	0	0	0	502
7	0	0	0	0	519
8	0	0	0	0	522
9	0	0	0	0	515
10	0	0	0	0	525
11	0	0	0	0	534
12	0	0	0	0	531
13	0	0	0	0	530
14	0	0	0	0	525
15	0	0	0	0	554
0	0	0	0	0	555
1	0	0	0	0	556
2	0	0	0	0	572
3	0	0	0	0	586
4	0	0	0	0	573
5	0	0	0	0	557
6	0	0	0	0	529
7	0	0	0	0	491
8	0	0	0	0	481
9	0	0	0	0	447
10	0	0	0	0	438
11	0	0	0	0	446
12	0	0	0	0	445
13	0	0	0	0	460
14	0	0	0	0	457
15	0	0	0	0	475
0	0	0	0	0	460
1	0	0	0	0	475
2	0	0	0	0	467
3	0	0	0	0	497
4	0	0	0	0	489
5	0	0	0	0	488
6	0	0	0	0	497
7	0	0	0	0	497
8	0	0	0	0	519
9	0	0	0	0	492
10	0	0	0	0	505
11	0	0	0	0	500
12	0	0	0	0	518
13	0	0	0	0	510
14	0	0	0	0	508
15	0	0	0	0	519
0	0	0	0	0	500
1	0	0	0	0	522
2	0	0	0	0	521
3	0	0	0	0	504
4	0	0	0	0	518
5	0	0	0	0	515
6	0	0	0	0	520
7	0	0	0	0	523
8	0	0	0	0	527
9	0	0	0	0	548
10	0	0	0	0	551
11	0	0	0	0	542
12	0	0	0	0	536
13	0	0	0	0	523
14	0	0	0	0	507
15	0	0	0	0	492
0	0	0	0	0	501
1	0	0	0	0	494
2	0	0	0	0	497
3	0	0	0	0	514
4	0	0	0	0	519
5	0	0	0	0	437
6	0	0	0	0	508
7	0	0	0	0	779
8	0	0	0	0	853
9	0	0	0	0	339
10	0	0	0	0	300
11	0	0	0	0	410
12	0	0	0	0	482
13	0	0	0	0	488
14	0	0	0	0	510
15	0	0	0	0	515
0	0	0	0	0	508
1	0	0	0	0	512
2	0	0	0	0	527
3	0	0	0	0	531
4	0	0	0	0	518
5	0	0	0	0	529
6	0	0	0	0	526
7	0	0	0	0	537
8	0	0	0	0	537
9	0	0	0	0	524
10	0	0	0	0	555
11	0	0	0	0	553
12	0	0	0	0	568
13	0	0	0	0	556
14	0	0	0	0	579
15	0	0	0	0	587
0	0	0	0	0	571
1	0	0	0	0	570
2	0	0	0	0	527
3	0	0	0	0	478
4	0	0	0	0	458
5	0	0	0	0	439
6	0	0	0	0	443
7	0	0	0	0	446
8	0	0	0	0	453
9	0	0	0	0	452
10	0	0	0	0	456
11	0	0	0	0	472
12	0	0	0	0	463
13	0	0	0	0	486
14	0	0	0	0	484
15	0	0	0	0	469
0	0	0	0	0	477
1	0	0	0	0	485
2	0	0	0	0	502
3	0	0	0	0	485
4	0	0	0	0	513
5	0	0	0	0	499
6	0	0	0	0	499
7	0	0	0	0	507
8	0	0	0	0	507
9	0	0	0	0	505
10	0	0	0	0	514
11	0	0	0	0	517
12	0	0	0	0	516
13	0	0	0	0	507
14	0	0	0	0	515
15	0	0	0	0	528
0	0	0	0	0	531
1	0	0	0	0	526
2	0	0	0	0	531
3	0	0	0	0	540
4	0	0	0	0	546
5	0	0	0	0	531
6	0	0	0	0	530
7	0	0	0	0	511
8	0	0	0	0	506
9	0	0	0	0	505
10	0	0	0	0	480
11	0	0	0	0	491
12	0	0	0	0	492
13	0	0	0	0	508
14	0	0	0	0	467
15	0	0	0	0	464
0	0	0	0	0	659
1	0	0	0	0	888
2	0	0	0	0	597
3	0	0	0	0	296
4	0	0	0	0	367
5	0	0	0	0	470
6	0	0	0	0	485
7	0	0	0	0	499
8	0	0	0	0	502
9	0	0	0	0	501
10	0	0	0	0	511
11	0	0	0	0	516
12	0	0	0	0	513
13	0	0	0	0	526
14	0	0	0	0	523
15	0	0	0	0	524
0	0	0	0	0	521
1	0	0	0	0	527
2	0	0	0	0	538
3	0	0	0	0	540
4	0	0	0	0	548
5	0	0	0	0	550
6	0	0	0	0	566
7	0	0	0	0	565
8	0	0	0	0	572
9	0	0	0	0	578
10	0	0	0	0	572
11	0	0	0	0	557
12	0	0	0	0	504
13	0	0	0	0	478
14	0	0	0	0	450
15	0	0	0	0	447
0	0	0	0	0	444
1	0	0	0	0	443
2	0	0	0	0	457
3	0	0	0	0	467
4	0	0	0	0	467
5	0	0	0	0	476
6	0	0	0	0	479
7	0	0	0	0	478
8	0	0	0	0	488
9	0	0	0	0	490
10	0	0	0	0	487
11	0	0	0	0	502
12	0	0	0	0	504
13	0	0	0	0	515
14	0	0	0	0	504
15	0	0	0	0	495
0	0	0	0	0	499
1	0	0	0	0	505
2	0	0	0	0	513
3	0	0	0	0	510
4	0	0	0	0	498
5	0	0	0	0	513
6	0	0	0	0	521
7	0	0	0	0	511
8	0	0	0	0	516
9	0	0	0	0	525
10	0	0	0	0	527
11	0	0	0	0	529
12	0	0	0	0	544
13	0	0	0	0	546
14	0	0	0	0	553
15	0	0	0	0	548
0	0	0	0	0	514
1	0	0	0	0	503
2	0	0	0	0	504
3	0	0	0	0	490
4	0	0	0	0	493
5	0	0	0	0	493
6	0	0	0	0	495
7	0	0	0	0	512
8	0	0	0	0	458
9	0	0	0	0	451
10	0	0	0	0	666
11	0	0	0	0	925
12	0	0	0	0	556
13	0	0	0	0	287
14	0	0	0	0	358
15	0	0	0	0	467
0	0	0	0	0	492
1	0	0	0	0	510
2	0	0	0	0	507
3	0	0	0	0	494
4	0	0	0	0	512
5	0	0	0	0	514
6	0	0	0	0	519
7	0	0	0	0	518
8	0	0	0	0	508
9	0	0	0	0	523
10	0	0	0	0	522
11	0	0	0	0	535
12	0	0	0	0	526
13	0	0	0	0	521
14	0	0	0	0	549
15	0	0	0	0	543
0	0	0	0	0	560
1	0	0	0	0	568
2	0	0	0	0	594
3	0	0	0	0	594
4	0	0	0	0	575
5	0	0	0	0	535
6	0	0	0	0	465
7	0	0	0	0	451
8	0	0	0	0	451
9	0	0	0	0	419
10	0	0	0	0	396
11	0	0	0	0	497
12	0	0	0	0	395
13	0	0	0	0	481
14	0	0	0	0	481
15	0	0	0	0	495
0	0	0	0	0	468
1	0	0	0	0	481
2	0	0	0	0	468
3	0	0	0	0	499
4	0	0	0	0	485
5	0	0	0	0	472
6	0	0	0	0	503
7	0	0	0	0	489
8	0	0	0	0	493
9	0	0	0	0	501
10	0	0	0	0	513
11	0	0	0	0	506
12	0	0	0	0	508
13	0	0	0	0	496
14	0	0	0	0	518
15	0	0	0	0	531
0	0	0	0	0	514
1	0	0	0	0	532
2	0	0	0	0	549
3	0	0	0	0	604
4	0	0	0	0	556
5	0	0	0	0	558
6	0	0	0	0	536
7	0	0	0	0	555
8	0	0	0	0	528
9	0	0	0	0	514
10	0	0	0	0	483
11	0	0	0	0	460
12	0	0	0	0	488
13	0	0	0	0	494
14	0	0	0	0	489
15	0	0	0	0	503
0	0	0	0	0	482
1	0	0	0	0	438
2	0	0	0	0	575
3	0	0	0	0	848
4	0	0	0	0	688
5	0	0	0	0	341
6	0	0	0	0	346
7	0	0	0	0	458
8	0	0	0	0	499
9	0	0	0	0	507
10	0	0	0	0	497
11	0	0	0	0	497
12	0	0	0	0	539
13	0	0	0	0	519
14	0	0	0	0	518
15	0	0	0	0	519
0	0	0	0	0	529
1	0	0	0	0	519
2	0	0	0	0	516
3	0	0	0	0	535
4	0	0	0	0	543
5	0	0	0	0	539
6	0	0	0	0	561
7	0	0	0	0	539
8	0	0	0	0	536
9	0	0	0	0	570
10	0	0	0	0	583
11	0	0	0	0	583
12	0	0	0	0	577
13	0	0	0	0	561
14	0	0	0	0	503
15	0	0	0	0	467
0	0	0	0	0	461
1	0	0	0	0	457
2	0	0	0	0	446
3	0	0	0	0	454
4	0	0	0	0	459
5	0	0	0	0	470
6	0	0	0	0	474
7	0	0	0	0	470
8	0	0	0	0	474
9	0	0	0	0	487
10	0	0	0	0	509
11	0	0	0	0	480
12	0	0	0	0	493
13	0	0	0	0	492
14	0	0	0	0	501
15	0	0	0	0	502
0	0	0	0	0	503
1	0	0	0	0	505
2	0	0	0	0	505
3	0	0	0	0	514
4	0	0	0	0	489
5	0	0	0	0	527
6	0	0	0	0	512
7	0	0	0	0	514
8	0	0	0	0	512
9	0	0	0	0	511
10	0	0	0	0	507
11	0	0	0	0	513
12	0	0	0	0	521
13	0	0	0	0	524
14	0	0	0	0	531
15	0	0	0	0	543
0	0	0	0	0	538
1	0	0	0	0	545
2	0	0	0	0	530
3	0	0	0	0	508
4	0	0	0	0	489
5	0	0	0	0	505
6	0	0	0	0	495
7	0	0	0	0	490
8	0	0	0	0	498
9	0	0	0	0	507
10	0	0	0	0	492
11	0	0	0	0	447
12	0	0	0	0	585
13	0	0	0	0	847
14	0	0	0	0	679
15	0	0	0	0	306
0	0	0	0	0	386
1	0	0	0	0	447
2	0	0	0	0	505
3	0	0	0	0	508
4	0	0	0	0	509
5	0	0	0	0	493
6	0	0	0	0	515
7	0	0	0	0	526
8	0	0	0	0	531
9	0	0	0	0	521
10	0	0	0	0	526
11	0	0	0	0	536
12	0	0	0	0	515
13	0	0	0	0	531
14	0	0	0	0	543
15	0	0	0	0	551
0	0	0	0	0	539
1	0	0	0	0	547
2	0	0	0	0	549
3	0	0	0	0	573
4	0	0	0	0	596
5	0	0	0	0	584
6	0	0	0	0	586
7	0	0	0	0	564
8	0	0	0	0	519
9	0	0	0	0	486
10	0	0	0	0	476
11	0	0	0	0	476
12	0	0	0	0	459
13	0	0	0	0	466
14	0	0	0	0	481
15	0	0	0	0	490
0	0	0	0	0	504
1	0	0	0	0	487
2	0	0	0	0	483
3	0	0	0	0	487
4	0	0	0	0	503
5	0	0	0	0	503
6	0	0	0	0	497
7	0	0	0	0	501
8	0	0	0	0	514
9	0	0	0	0	514
10	0	0	0	0	512
11	0	0	0	0	514
12	0	0	0	0	521
13	0	0	0	0	497
14	0	0	0	0	518
15	0	0	0	0	533
0	0	0	0	0	535
1	0	0	0	0	514
2	0	0	0	0	524
3	0	0	0	0	536
4	0	0	0	0	528
5	0	0	0	0	547
6	0	0	0	0	549
7	0	0	0	0	539
8	0	0	0	0	543
9	0	0	0	0	549
10	0	0	0	0	507
11	0	0	0	0	503
12	0	0	0	0	493
13	0	0	0	0	498
14	0	0	0	0	487
15	0	0	0	0	496
0	0	0	0	0	509
1	0	0	0	0	493
2	0	0	0	0	447
3	0	0	0	0	567
4	0	0	0	0	865
5	0	0	0	0	740
6	0	0	0	0	303
7	0	0	0	0	324
8	0	0	0	0	422
9	0	0	0	0	465
10	0	0	0	0	497
11	0	0	0	0	496
12	0	0	0	0	503
13	0	0	0	0	487
14	0	0	0	0	495
15	0	0	0	0	499
0	0	0	0	0	511
1	0	0	0	0	510
2	0	0	0	0	512
3	0	0	0	0	515
4	0	0	0	0	505
5	0	0	0	0	510
6	0	0	0	0	519
7	0	0	0	0	515
8	0	0	0	0	535
9	0	0	0	0	556
10	0	0	0	0	559
11	0	0	0	0	569
12	0	0	0	0	565
13	0	0	0	0	554
14	0	0	0	0	525
15	0	0	0	0	489
0	0	0	0	0	473
1	0	0	0	0	451
2	0	0	0	0	427
3	0	0	0	0	419
4	0	0	0	0	424
5	0	0	0	0	438
6	0	0	0	0	443
7	0	0	0	0	439
8	0	0	0	0	470
9	0	0	0	0	459
10	0	0	0	0	469
11	0	0	0	0	460
12	0	0	0	0	478
13	0	0	0	0	481
14	0	0	0	0	482
15	0	0	0	0	477
0	0	0	0	0	480
1	0	0	0	0	473
2	0	0	0	0	497
3	0	0	0	0	492
4	0	0	0	0	500
5	0	0	0	0	503
6	0	0	0	0	498
7	0	0	0	0	493
8	0	0	0	0	506
9	0	0	0	0	509
10	0	0	0	0	504
11	0	0	0	0	509
12	0	0	0	0	503
13	0	0	0	0	512
14	0	0	0	0	515
15	0	0	0	0	502
0	0	0	0	0	511
1	0	0	0	0	515
2	0	0	0	0	501
3	0	0	0	0	514
4	0	0	0	0	528
5	0	0	0	0	533
6	0	0	0	0	543
7	0	0	0	0	535
8	0	0	0	0	543
9	0	0	0	0	523
10	0	0	0	0	506
11	0	0	0	0	500
12	0	0	0	0	500
13	0	0	0	0	486
14	0	0	0	0	485
15	0	0	0	0	498
0	0	0	0	0	492
1	0	0	0	0	500
2	0	0	0	0	438
3	0	0	0	0	469
4	0	0	0	0	718
5	0	0	0	0	888
6	0	0	0	0	435
7	0	0	0	0	287
8	0	0	0	0	400
9	0	0	0	0	467
10	0	0	0	0	502
11	0	0	0	0	500
12	0	0	0	0	493
13	0	0	0	0	497
14	0	0	0	0	503
15	0	0	0	0	513
0	0	0	0	0	524
1	0	0	0	0	510
2	0	0	0	0	529
3	0	0	0	0	521
4	0	0	0	0	528
5	0	0	0	0	530
6	0	0	0	0	524
7	0	0	0	0	531
8	0	0	0	0	553
9	0	0	0	0	549
10	0	0	0	0	568
11	0	0	0	0	573
12	0	0	0	0	583
13	0	0	0	0	572
14	0	0	0	0	573
15	0	0	0	0	535
0	0	0	0	0	499
1	0	0	0	0	487
2	0	0	0	0	463
3	0	0	0	0	442
4	0	0	0	0	438
5	0	0	0	0	460
6	0	0	0	0	462
7	0	0	0	0	457
8	0	0	0	0	473
9	0	0	0	0	482
10	0	0	0	0	492
11	0	0	0	0	483
12	0	0	0	0	497
13	0	0	0	0	485
14	0	0	0	0	495
15	0	0	0	0	496
0	0	0	0	0	502
1	0	0	0	0	504
2	0	0	0	0	508
3	0	0	0	0	505
4	0	0	0	0	519
5	0	0	0	0	510
6	0	0	0	0	515
7	0	0	0	0	515
8	0	0	0	0	519
9	0	0	0	0	517
10	0	0	0	0	510
11	0	0	0	0	542
12	0	0	0	0	507
13	0	0	0	0	508
14	0	0	0	0	526
15	0	0	0	0	529
0	0	0	0	0	525
1	0	0	0	0	529
2	0	0	0	0	524
3	0	0	0	0	517
4	0	0	0	0	531
5	0	0	0	0	536
6	0	0	0	0	541
7	0	0	0	0	546
8	0	0	0	0	563
9	0	0	0	0	548
10	0	0	0	0	559
11	0	0	0	0	517
12	0	0	0	0	505
13	0	0	0	0	489
14	0	0	0	0	515
15	0	0	0	0	494
0	0	0	0	0	500
1	0	0	0	0	512
2	0	0	0	0	505
3	0	0	0	0	466
4	0	0	0	0	472
5	0	0	0	0	708
6	0	0	0	0	903
7	0	0	0	0	481
8	0	0	0	0	300
9	0	0	0	0	399
10	0	0	0	0	478
11	0	0	0	0	499
12	0	0	0	0	512
13	0	0	0	0	503
14	0	0	0	0	514
15	0	0	0	0	518
0	0	0	0	0	511
1	0	0	0	0	523
2	0	0	0	0	527
3	0	0	0	0	531
4	0	0	0	0	528
5	0	0	0	0	527
6	0	0	0	0	536
7	0	0	0	0	534
8	0	0	0	0	542
9	0	0	0	0	547
10	0	0	0	0	554
11	0	0	0	0	571
12	0	0	0	0	578
13	0	0	0	0	575
14	0	0	0	0	587
15	0	0	0	0	577
0	0	0	0	0	546
1	0	0	0	0	509
2	0	0	0	0	484
3	0	0	0	0	460
4	0	0	0	0	448
5	0	0	0	0	441
6	0	0	0	0	459
7	0	0	0	0	458
8	0	0	0	0	475
9	0	0	0	0	467
10	0	0	0	0	482
11	0	0	0	0	480
12	0	0	0	0	490
13	0	0	0	0	496
14	0	0	0	0	483
15	0	0	0	0	488
0	0	0	0	0	511
1	0	0	0	0	505
2	0	0	0	0	500
3	0	0	0	0	502
4	0	0	0	0	514
5	0	0	0	0	497
6	0	0	0	0	498
7	0	0	0	0	506
8	0	0	0	0	516
9	0	0	0	0	513
10	0	0	0	0	519
11	0	0	0	0	535
12	0	0	0	0	512
13	0	0	0	0	512
14	0	0	0	0	518
15	0	0	0	0	522
0	0	0	0	0	519
1	0	0	0	0	510
2	0	0	0	0	526
3	0	0	0	0	518
4	0	0	0	0	524
5	0	0	0	0	528
6	0	0	0	0	530
7	0	0	0	0	552
8	0	0	0	0	551
9	0	0	0	0	552
10	0	0	0	0	547
11	0	0	0	0	515
12	0	0	0	0	509
13	0	0	0	0	497
14	0	0	0	0	491
15	0	0	0	0	492
0	0	0	0	0	509
1	0	0	0	0	498
2	0	0	0	0	499
3	0	0	0	0	450
4	0	0	0	0	495
5	0	0	0	0	733
6	0	0	0	0	895
7	0	0	0	0	415
8	0	0	0	0	296
9	0	0	0	0	406
10	0	0	0	0	476
11	0	0	0	0	496
12	0	0	0	0	499
13	0	0	0	0	502
14	0	0	0	0	512
15	0	0	0	0	523
0	0	0	0	0	512
1	0	0	0	0	508
2	0	0	0	0	532
3	0	0	0	0	522
4	0	0	0	0	519
5	0	0	0	0	527
6	0	0	0	0	529
7	0	0	0	0	531
8	0	0	0	0	542
9	0	0	0	0	543
10	0	0	0	0	558
11	0	0	0	0	554
12	0	0	0	0	572
13	0	0	0	0	573
14	0	0	0	0	589
15	0	0	0	0	566
0	0	0	0	0	542
1	0	0	0	0	510
2	0	0	0	0	472
3	0	0	0	0	454
4	0	0	0	0	445
5	0	0	0	0	455
6	0	0	0	0	451
7	0	0	0	0	449
8	0	0	0	0	463
9	0	0	0	0	486
10	0	0	0	0	463
11	0	0	0	0	474
12	0	0	0	0	494
13	0	0	0	0	472
14	0	0	0	0	492
15	0	0	0	0	492
0	0	0	0	0	497
1	0	0	0	0	501
2	0	0	0	0	495
3	0	0	0	0	494
4	0	0	0	0	493
5	0	0	0	0	503
6	0	0	0	0	513
7	0	0	0	0	516
8	0	0	0	0	512
9	0	0	0	0	532
10	0	0	0	0	515
11	0	0	0	0	502
12	0	0	0	0	511
13	0	0	0	0	506
14	0	0	0	0	508
15	0	0	0	0	535
0	0	0	0	0	504
1	0	0	0	0	518
2	0	0	0	0	519
3	0	0	0	0	519
4	0	0	0	0	514
5	0	0	0	0	508
6	0	0	0	0	516
7	0	0	0	0	524
8	0	0	0	0	519
9	0	0	0	0	522
10	0	0	0	0	527
11	0	0	0	0	556
12	0	0	0	0	537
13	0	0	0	0	541
14	0	0	0	0	534
15	0	0	0	0	518
0	0	0	0	0	508
1	0	0	0	0	501
2	0	0	0	0	499
3	0	0	0	0	482
4	0	0	0	0	494
5	0	0	0	0	505
6	0	0	0	0	498
7	0	0	0	0	457
8	0	0	0	0	472
9	0	0	0	0	664
10	0	0	0	0	917
11	0	0	0	0	523
12	0	0	0	0	286
13	0	0	0	0	376
14	0	0	0	0	463
15	0	0	0	0	490
0	0	0	0	0	492
1	0	0	0	0	498
2	0	0	0	0	511
3	0	0	0	0	518
4	0	0	0	0	511
5	0	0	0	0	521
6	0	0	0	0	511
7	0	0	0	0	517
8	0	0	0	0	527
9	0	0	0	0	521
10	0	0	0	0	561
11	0	0	0	0	529
12	0	0	0	0	534
13	0	0	0	0	547
14	0	0	0	0	553
15	0	0	0	0	558
0	0	0	0	0	569
1	0	0	0	0	577
2	0	0	0	0	590
3	0	0	0	0	563
4	0	0	0	0	537
5	0	0	0	0	504
6	0	0	0	0	483
7	0	0	0	0	454
8	0	0	0	0	454
9	0	0	0	0	438
10	0	0	0	0	454
11	0	0	0	0	456
12	0	0	0	0	443
13	0	0	0	0	467
14	0	0	0	0	473
15	0	0	0	0	476
0	0	0	0	0	476
1	0	0	0	0	484
2	0	0	0	0	491
3	0	0	0	0	489
4	0	0	0	0	500
5	0	0	0	0	498
6	0	0	0	0	492
7	0	0	0	0	517
8	0	0	0	0	493
9	0	0	0	0	499
10	0	0	0	0	525
11	0	0	0	0	504
12	0	0	0	0	509
13	0	0	0	0	519
14	0	0	0	0	519
15	0	0	0	0	514
0	0	0	0	0	515
1	0	0	0	0	512
2	0	0	0	0	514
3	0	0	0	0	515
4	0	0	0	0	526
5	0	0	0	0	533
6	0	0	0	0	512
7	0	0	0	0	526
8	0	0	0	0	518
9	0	0	0	0	536
10	0	0	0	0	551
11	0	0	0	0	545
12	0	0	0	0	545
13	0	0	0	0	527
14	0	0	0	0	507
15	0	0	0	0	500
0	0	0	0	0	498
1	0	0	0	0	509
2	0	0	0	0	488
3	0	0	0	0	513
4	0	0	0	0	491
5	0	0	0	0	505
6	0	0	0	0	441
7	0	0	0	0	504
8	0	0	0	0	789
9	0	0	0	0	855
10	0	0	0	0	343
11	0	0	0	0	303
12	0	0	0	0	407
13	0	0	0	0	480
14	0	0	0	0	505
15	0	0	0	0	497
0	0	0	0	0	507
1	0	0	0	0	508
2	0	0	0	0	516
3	0	0	0	0	518
4	0	0	0	0	520
5	0	0	0	0	516
6	0	0	0	0	534
7	0	0	0	0	529
8	0	0	0	0	527
9	0	0	0	0	524
10	0	0	0	0	532
11	0	0	0	0	540
12	0	0	0	0	549
13	0	0	0	0	561
14	0	0	0	0	576
15	0	0	0	0	576
0	0	0	0	0	584
1	0	0	0	0	582
2	0	0	0	0	564
3	0	0	0	0	524
4	0	0	0	0	499
5	0	0	0	0	464
6	0	0	0	0	443
7	0	0	0	0	440
8	0	0	0	0	450
9	0	0	0	0	449
10	0	0	0	0	454
11	0	0	0	0	468
12	0	0	0	0	460
13	0	0	0	0	470
14	0	0	0	0	474
15	0	0	0	0	481
0	0	0	0	0	483
1	0	0	0	0	492
2	0	0	0	0	491
3	0	0	0	0	497
4	0	0	0	0	502
5	0	0	0	0	497
6	0	0	0	0	499
7	0	0	0	0	513
8	0	0	0	0	515
9	0	0	0	0	504
10	0	0	0	0	510
11	0	0	0	0	507
12	0	0	0	0	516
13	0	0	0	0	515
14	0	0	0	0	507
15	0	0	0	0	523
0	0	0	0	0	516
1	0	0	0	0	511
2	0	0	0	0	521
3	0	0	0	0	510
4	0	0	0	0	519
5	0	0	0	0	519
6	0	0	0	0	531
7	0	0	0	0	520
8	0	0	0	0	537
9	0	0	0	0	558
10	0	0	0	0	534
11	0	0	0	0	543
12	0	0	0	0	524
13	0	0	0	0	504
14	0	0	0	0	500
15	0	0	0	0	489
0	0	0	0	0	494
1	0	0	0	0	503
2	0	0	0	0	504
3	0	0	0	0	495
4	0	0	0	0	489
5	0	0	0	0	440
6	0	0	0	0	570
7	0	0	0	0	868
8	0	0	0	0	749
9	0	0	0	0	304
10	0	0	0	0	335
11	0	0	0	0	446
12	0	0	0	0	482
13	0	0	0	0	486
14	0	0	0	0	508
15	0	0	0	0	500
0	0	0	0	0	508
1	0	0	0	0	513
2	0	0	0	0	517
3	0	0	0	0	516
4	0	0	0	0	525
5	0	0	0	0	533
6	0	0	0	0	519
7	0	0	0	0	524
8	0	0	0	0	535
9	0	0	0	0	529
10	0	0	0	0	542
11	0	0	0	0	564
12	0	0	0	0	567
13	0	0	0	0	562
14	0	0	0	0	570
15	0	0	0	0	574
0	0	0	0	0	566
1	0	0	0	0	557
2	0	0	0	0	536
3	0	0	0	0	489
4	0	0	0	0	460
5	0	0	0	0	439
6	0	0	0	0	446
7	0	0	0	0	459
8	0	0	0	0	454
9	0	0	0	0	454
10	0	0	0	0	472
11	0	0	0	0	482
12	0	0	0	0	471
13	0	0	0	0	476
14	0	0	0	0	503
15	0	0	0	0	483
0	0	0	0	0	487
1	0	0	0	0	497
2	0	0	0	0	498
3	0	0	0	0	491
4	0	0	0	0	503
5	0	0	0	0	508
6	0	0	0	0	497
7	0	0	0	0	499
8	0	0	0	0	505
9	0	0	0	0	525
10	0	0	0	0	515
11	0	0	0	0	501
12	0	0	0	0	520
13	0	0	0	0	512
14	0	0	0	0	511
15	0	0	0	0	518
0	0	0	0	0	511
1	0	0	0	0	511
2	0	0	0	0	512
3	0	0	0	0	520
4	0	0	0	0	527
5	0	0	0	0	516
6	0	0	0	0	523
7	0	0	0	0	536
8	0	0	0	0	526
9	0	0	0	0	553
10	0	0	0	0	552
11	0	0	0	0	536
12	0	0	0	0	536
13	0	0	0	0	517
14	0	0	0	0	503
15	0	0	0	0	507
0	0	0	0	0	495
1	0	0	0	0	499
2	0	0	0	0	494
3	0	0	0	0	486
4	0	0	0	0	518
5	0	0	0	0	460
6	0	0	0	0	461
7	0	0	0	0	670
8	0	0	0	0	913
9	0	0	0	0	539
10	0	0	0	0	286
11	0	0	0	0	375
12	0	0	0	0	465
13	0	0	0	0	493
14	0	0	0	0	494
15	0	0	0	0	501
0	0	0	0	0	504
1	0	0	0	0	506
2	0	0	0	0	512
3	0	0	0	0	515
4	0	0	0	0	512
5	0	0	0	0	524
6	0	0	0	0	519
7	0	0	0	0	528
8	0	0	0	0	531
9	0	0	0	0	531
10	0	0	0	0	539
11	0	0	0	0	556
12	0	0	0	0	538
13	0	0	0	0	560
14	0	0	0	0	577
15	0	0	0	0	575
0	0	0	0	0	580
1	0	0	0	0	584
2	0	0	0	0	553
3	0	0	0	0	512
4	0	0	0	0	478
5	0	0	0	0	463
6	0	0	0	0	452
7	0	0	0	0	446
8	0	0	0	0	462
9	0	0	0	0	451
10	0	0	0	0	456
11	0	0	0	0	467
12	0	0	0	0	468
13	0	0	0	0	487
14	0	0	0	0	485
15	0	0	0	0	496
0	0	0	0	0	483
1	0	0	0	0	497
2	0	0	0	0	489
3	0	0	0	0	505
4	0	0	0	0	487
5	0	0	0	0	498
6	0	0	0	0	499
7	0	0	0	0	514
8	0	0	0	0	499
9	0	0	0	0	496
10	0	0	0	0	509
11	0	0	0	0	505
12	0	0	0	0	510
13	0	0	0	0	512
14	0	0	0	0	512
15	0	0	0	0	524
0	0	0	0	0	514
1	0	0	0	0	509
2	0	0	0	0	521
3	0	0	0	0	510
4	0	0	0	0	519
5	0	0	0	0	511
6	0	0	0	0	515
7	0	0	0	0	516
8	0	0	0	0	518
9	0	0	0	0	530
10	0	0	0	0	527
11	0	0	0	0	530
12	0	0	0	0	525
13	0	0	0	0	553
14	0	0	0	0	536
15	0	0	0	0	547
0	0	0	0	0	533
1	0	0	0	0	512
2	0	0	0	0	491
3	0	0	0	0	510
4	0	0	0	0	499
5	0	0	0	0	493
6	0	0	0	0	485
7	0	0	0	0	492
8	0	0	0	0	494
9	0	0	0	0	444
10	0	0	0	0	563
11	0	0	0	0	857
12	0	0	0	0	775
13	0	0	0	0	318
14	0	0	0	0	328
15	0	0	0	0	439
0	0	0	0	0	474
1	0	0	0	0	485
2	0	0	0	0	504
3	0	0	0	0	519
4	0	0	0	0	507
5	0	0	0	0	501
6	0	0	0	0	509
7	0	0	0	0	519
8	0	0	0	0	529
9	0	0	0	0	528
10	0	0	0	0	522
11	0	0	0	0	525
12	0	0	0	0	529
13	0	0	0	0	532
14	0	0	0	0	531
15	0	0	0	0	545
0	0	0	0	0	564
1	0	0	0	0	568
2	0	0	0	0	590
3	0	0	0	0	577
4	0	0	0	0	581
5	0	0	0	0	578
6	0	0	0	0	523
7	0	0	0	0	490
8	0	0	0	0	463
9	0	0	0	0	459
10	0	0	0	0	449
11	0	0	0	0	436
12	0	0	0	0	444
13	0	0	0	0	454
14	0	0	0	0	472
15	0	0	0	0	472
0	0	0	0	0	468
1	0	0	0	0	482
2	0	0	0	0	480
3	0	0	0	0	482
4	0	0	0	0	486
5	0	0	0	0	501
6	0	0	0	0	490
7	0	0	0	0	514
8	0	0	0	0	492
9	0	0	0	0	501
10	0	0	0	0	494
11	0	0	0	0	514
12	0	0	0	0	506
13	0	0	0	0	511
14	0	0	0	0	510
15	0	0	0	0	505
0	0	0	0	0	515
1	0	0	0	0	510
2	0	0	0	0	520
3	0	0	0	0	515
4	0	0	0	0	523
5	0	0	0	0	514
6	0	0	0	0	515
7	0	0	0	0	514
8	0	0	0	0	513
9	0	0	0	0	524
10	0	0	0	0	524
11	0	0	0	0	535
12	0	0	0	0	539
13	0	0	0	0	550
14	0	0	0	0	543
15	0	0	0	0	530
0	0	0	0	0	515
1	0	0	0	0	506
2	0	0	0	0	503
3	0	0	0	0	499
4	0	0	0	0	483
5	0	0	0	0	496
6	0	0	0	0	495
7	0	0	0	0	500
8	0	0	0	0	473
9	0	0	0	0	458
10	0	0	0	0	621
11	0	0	0	0	908
12	0	0	0	0	594
13	0	0	0	0	286
14	0	0	0	0	350
15	0	0	0	0	451
0	0	0	0	0	499
1	0	0	0	0	489
2	0	0	0	0	509
3	0	0	0	0	514
4	0	0	0	0	507
5	0	0	0	0	521
6	0	0	0	0	517
7	0	0	0	0	519
8	0	0	0	0	519
9	0	0	0	0	536
10	0	0	0	0	529
11	0	0	0	0	542
12	0	0	0	0	541
13	0	0	0	0	534
14	0	0	0	0	545
15	0	0	0	0	549
0	0	0	0	0	572
1	0	0	0	0	580
2	0	0	0	0	588
3	0	0	0	0	587
4	0	0	0	0	583
5	0	0	0	0	541
6	0	0	0	0	505
7	0	0	0	0	480
8	0	0	0	0	459
9	0	0	0	0	436
10	0	0	0	0	437
11	0	0	0	0	438
12	0	0	0	0	455
13	0	0	0	0	462
14	0	0	0	0	460
15	0	0	0	0	461
0	0	0	0	0	465
1	0	0	0	0	485
2	0	0	0	0	480
3	0	0	0	0	486
4	0	0	0	0	491
5	0	0	0	0	504
6	0	0	0	0	497
7	0	0	0	0	498
8	0	0	0	0	494
9	0	0	0	0	498
10	0	0	0	0	507
11	0	0	0	0	508
12	0	0	0	0	509
13	0	0	0	0	530
14	0	0	0	0	513
15	0	0	0	0	511
0	0	0	0	0	508
1	0	0	0	0	513
2	0	0	0	0	511
3	0	0	0	0	524
4	0	0	0	0	512
5	0	0	0	0	519
6	0	0	0	0	516
7	0	0	0	0	517
8	0	0	0	0	521
9	0	0	0	0	519
10	0	0	0	0	521
11	0	0	0	0	523
12	0	0	0	0	517
13	0	0	0	0	527
14	0	0	0	0	553
15	0	0	0	0	540
0	0	0	0	0	554
1	0	0	0	0	540
2	0	0	0	0	516
3	0	0	0	0	498
4	0	0	0	0	504
5	0	0	0	0	485
6	0	0	0	0	504
7	0	0	0	0	495
8	0	0	0	0	499
9	0	0	0	0	494
10	0	0	0	0	451
11	0	0	0	0	483
12	0	0	0	0	709
13	0	0	0	0	905
14	0	0	0	0	463
15	0	0	0	0	296
0	0	0	0	0	395
1	0	0	0	0	471
2	0	0	0	0	493
3	0	0	0	0	491
4	0	0	0	0	500
5	0	0	0	0	509
6	0	0	0	0	502
7	0	0	0	0	510
8	0	0	0	0	521
9	0	0	0	0	530
10	0	0	0	0	515
11	0	0	0	0	515
12	0	0	0	0	521
13	0	0	0	0	529
14	0	0	0	0	528
15	0	0	0	0	538
0	0	0	0	0	549
1	0	0	0	0	557
2	0	0	0	0	568
3	0	0	0	0	563
4	0	0	0	0	583
5	0	0	0	0	577
6	0	0	0	0	573
7	0	0	0	0	543
8	0	0	0	0	527
9	0	0	0	0	474
10	0	0	0	0	447
11	0	0	0	0	446
12	0	0	0	0	445
13	0	0	0	0	453
14	0	0	0	0	459
15	0	0	0	0	465
0	0	0	0	0	460
1	0	0	0	0	473
2	0	0	0	0	479
3	0	0	0	0	490
4	0	0	0	0	496
5	0	0	0	0	486
6	0	0	0	0	496
7	0	0	0	0	487
8	0	0	0	0	489
9	0	0	0	0	496
10	0	0	0	0	510
11	0	0	0	0	508
12	0	0	0	0	518
13	0	0	0	0	503
14	0	0	0	0	510
15	0	0	0	0	499
0	0	0	0	0	511
1	0	0	0	0	510
2	0	0	0	0	521
3	0	0	0	0	517
4	0	0	0	0	515
5	0	0	0	0	527
6	0	0	0	0	502
7	0	0	0	0	520
8	0	0	0	0	517
9	0	0	0	0	533
10	0	0	0	0	508
11	0	0	0	0	499
12	0	0	0	0	528
13	0	0	0	0	514
14	0	0	0	0	528
15	0	0	0	0	525
0	0	0	0	0	518
1	0	0	0	0	522
2	0	0	0	0	516
3	0	0	0	0	524
4	0	0	0	0	540
5	0	0	0	0	548
6	0	0	0	0	548
7	0	0	0	0	547
8	0	0	0	0	525
9	0	0	0	0	514
10	0	0	0	0	495
11	0	0	0	0	500
12	0	0	0	0	492
13	0	0	0	0	494
14	0	0	0	0	502
15	0	0	0	0	497
0	0	0	0	0	494
1	0	0	0	0	447
2	0	0	0	0	497
3	0	0	0	0	758
4	0	0	0	0	894
5	0	0	0	0	408
6	0	0	0	0	311
7	0	0	0	0	403
8	0	0	0	0	462
9	0	0	0	0	499
10	0	0	0	0	497
11	0	0	0	0	501
12	0	0	0	0	511
13	0	0	0	0	511
14	0	0	0	0	509
15	0	0	0	0	518
0	0	0	0	0	521
1	0	0	0	0	519
2	0	0	0	0	520
3	0	0	0	0	531
4	0	0	0	0	536
5	0	0	0	0	529
6	0	0	0	0	533
7	0	0	0	0	549
8	0	0	0	0	543
9	0	0	0	0	571
10	0	0	0	0	577
11	0	0	0	0	587
12	0	0	0	0	575
13	0	0	0	0	575
14	0	0	0	0	543
15	0	0	0	0	504
0	0	0	0	0	470
1	0	0	0	0	448
2	0	0	0	0	451
3	0	0	0	0	443
4	0	0	0	0	455
5	0	0	0	0	461
6	0	0	0	0	463
7	0	0	0	0	471
8	0	0	0	0	460
9	0	0	0	0	472
10	0	0	0	0	476
11	0	0	0	0	485
12	0	0	0	0	493
13	0	0	0	0	490
14	0	0	0	0	498
15	0	0	0	0	506
0	0	0	0	0	483
1	0	0	0	0	498
2	0	0	0	0	497
3	0	0	0	0	494
4	0	0	0	0	503
5	0	0	0	0	513
6	0	0	0	0	512
7	0	0	0	0	508
8	0	0	0	0	511
9	0	0	0	0	531
10	0	0	0	0	515
11	0	0	0	0	509
12	0	0	0	0	517
13	0	0	0	0	520
14	0	0	0	0	509
15	0	0	0	0	513
0	0	0	0	0	522
1	0	0	0	0	518
2	0	0	0	0	527
3	0	0	0	0	524
4	0	0	0	0	518
5	0	0	0	0	535
6	0	0	0	0	543
7	0	0	0	0	546
8	0	0	0	0	544
9	0	0	0	0	524
10	0	0	0	0	523
11	0	0	0	0	497
12	0	0	0	0	497
13	0	0	0	0	497
14	0	0	0	0	500
15	0	0	0	0	506
0	0	0	0	0	499
1	0	0	0	0	494
2	0	0	0	0	452
3	0	0	0	0	547
4	0	0	0	0	858
5	0	0	0	0	757
6	0	0	0	0	300
7	0	0	0	0	308
8	0	0	0	0	420
9	0	0	0	0	493
10	0	0	0	0	509
11	0	0	0	0	513
12	0	0	0	0	515
13	0	0	0	0	523
14	0	0	0	0	522
15	0	0	0	0	529
0	0	0	0	0	535
1	0	0	0	0	529
2	0	0	0	0	514
3	0	0	0	0	528
4	0	0	0	0	532
5	0	0	0	0	531
6	0	0	0	0	544
7	0	0	0	0	556
8	0	0	0	0	551
9	0	0	0	0	565
10	0	0	0	0	590
11	0	0	0	0	587
12	0	0	0	0	573
13	0	0	0	0	581
14	0	0	0	0	563
15	0	0	0	0	521
0	0	0	0	0	491
1	0	0	0	0	463
2	0	0	0	0	435
3	0	0	0	0	437
4	0	0	0	0	443
5	0	0	0	0	436
6	0	0	0	0	446
7	0	0	0	0	456
8	0	0	0	0	462
9	0	0	0	0	469
10	0	0	0	0	480
11	0	0	0	0	488
12	0	0	0	0	481
13	0	0	0	0	481
14	0	0	0	0	488
15	0	0	0	0	498
0	0	0	0	0	492
1	0	0	0	0	490
2	0	0	0	0	503
3	0	0	0	0	507
4	0	0	0	0	512
5	0	0	0	0	507
6	0	0	0	0	508
7	0	0	0	0	512
8	0	0	0	0	512
9	0	0	0	0	514
10	0	0	0	0	504
11	0	0	0	0	518
12	0	0	0	0	507
13	0	0	0	0	520
14	0	0	0	0	519
15	0	0	0	0	537
0	0	0	0	0	518
1	0	0	0	0	527
2	0	0	0	0	547
3	0	0	0	0	557
4	0	0	0	0	539
5	0	0	0	0	535
6	0	0	0	0	504
7	0	0	0	0	514
8	0	0	0	0	498
9	0	0	0	0	496
10	0	0	0	0	490
11	0	0	0	0	497
12	0	0	0	0	500
13	0	0	0	0	506
14	0	0	0	0	437
15	0	0	0	0	500
0	0	0	0	0	753
1	0	0	0	0	883
2	0	0	0	0	416
3	0	0	0	0	313
4	0	0	0	0	413
5	0	0	0	0	478
6	0	0	0	0	489
7	0	0	0	0	501
8	0	0	0	0	487
9	0	0	0	0	506
10	0	0	0	0	512
11	0	0	0	0	515
12	0	0	0	0	520
13	0	0	0	0	538
14	0	0	0	0	521
15	0	0	0	0	531
0	0	0	0	0	530
1	0	0	0	0	524
2	0	0	0	0	538
3	0	0	0	0	542
4	0	0	0	0	547
5	0	0	0	0	548
6	0	0	0	0	553
7	0	0	0	0	579
8	0	0	0	0	572
9	0	0	0	0	584
10	0	0	0	0	575
11	0	0	0	0	539
12	0	0	0	0	487
13	0	0	0	0	464
14	0	0	0	0	438
15	0	0	0	0	447
0	0	0	0	0	458
1	0	0	0	0	459
2	0	0	0	0	448
3	0	0	0	0	473
4	0	0	0	0	471
5	0	0	0	0	459
6	0	0	0	0	477
7	0	0	0	0	473
8	0	0	0	0	484
9	0	0	0	0	499
10	0	0	0	0	498
11	0	0	0	0	502
12	0	0	0	0	496
13	0	0	0	0	507
14	0	0	0	0	504
15	0	0	0	0	499
0	0	0	0	0	491
1	0	0	0	0	510
2	0	0	0	0	524
3	0	0	0	0	520
4	0	0	0	0	493
5	0	0	0	0	509
6	0	0	0	0	524
7	0	0	0	0	511
8	0	0	0	0	512
9	0	0	0	0	527
10	0	0	0	0	513
11	0	0	0	0	518
12	0	0	0	0	516
13	0	0	0	0	518
14	0	0	0	0	506
15	0	0	0	0	535
0	0	0	0	0	520
1	0	0	0	0	547
2	0	0	0	0	566
3	0	0	0	0	532
4	0	0	0	0	537
5	0	0	0	0	537
6	0	0	0	0	510
7	0	0	0	0	499
8	0	0	0	0	493
9	0	0	0	0	487
10	0	0	0	0	499
11	0	0	0	0	501
12	0	0	0	0	494
13	0	0	0	0	503
14	0	0	0	0	454
15	0	0	0	0	473
0	0	0	0	0	706
1	0	0	0	0	904
2	0	0	0	0	496
3	0	0	0	0	312
4	0	0	0	0	408
5	0	0	0	0	471
6	0	0	0	0	488
7	0	0	0	0	475
8	0	0	0	0	490
9	0	0	0	0	510
10	0	0	0	0	519
11	0	0	0	0	492
12	0	0	0	0	513
13	0	0	0	0	514
14	0	0	0	0	521
15	0	0	0	0	514
0	0	0	0	0	524
1	0	0	0	0	524
2	0	0	0	0	529
3	0	0	0	0	531
4	0	0	0	0	548
5	0	0	0	0	550
6	0	0	0	0	554
7	0	0	0	0	561
8	0	0	0	0	580
9	0	0	0	0	583
10	0	0	0	0	572
11	0	0	0	0	539
12	0	0	0	0	513
13	0	0	0	0	466
14	0	0	0	0	463
15	0	0	0	0	443
0	0	0	0	0	443
1	0	0	0	0	444
2	0	0	0	0	457
3	0	0	0	0	462
4	0	0	0	0	458
5	0	0	0	0	474
6	0	0	0	0	478
7	0	0	0	0	482
8	0	0	0	0	481
9	0	0	0	0	491
10	0	0	0	0	481
11	0	0	0	0	486
12	0	0	0	0	505
13	0	0	0	0	507
14	0	0	0	0	496
15	0	0	0	0	493
0	0	0	0	0	504
1	0	0	0	0	508
2	0	0	0	0	505
3	0	0	0	0	498
4	0	0	0	0	512
5	0	0	0	0	519
6	0	0	0	0	519
7	0	0	0	0	508
8	0	0	0	0	505
9	0	0	0	0	517
10	0	0	0	0	518
11	0	0	0	0	532
12	0	0	0	0	535
13	0	0	0	0	529
14	0	0	0	0	543
15	0	0	0	0	553
0	0	0	0	0	550
1	0	0	0	0	530
2	0	0	0	0	515
3	0	0	0	0	501
4	0	0	0	0	492
5	0	0	0	0	495
6	0	0	0	0	497
7	0	0	0	0	504
8	0	0	0	0	493
9	0	0	0	0	499
10	0	0	0	0	453
11	0	0	0	0	495
12	0	0	0	0	760
