# OpenSignals Text File Format
# {"CC:78:AB:62:C7:8F":{"sensor":["RAW"],"device name":"CC:78:AB:62:C7:8F","column":["nSeq","I1","I2","O1","O2","A2"],"sync interval":2,"time":"13:12:57","comments":"","device connection":"BLECC:78:AB:62:C7:8F","channels":[2],"date":"2022-04-28","mode":0,"digital IO":[0,0,1,1],"firmware version":0,"device":"bitalino_rev","position":0,"sampling rate":100,"label":["A2"],"resolution":[10],"special":[{}]}}
# EndOfHeader
0	0	0	0	0	515
1	0	0	0	0	520
2	0	0	0	0	522
3	0	0	0	0	519
4	0	0	0	0	524
5	0	0	0	0	533
6	0	0	0	0	511
7	0	0	0	0	529
8	0	0	0	0	525
9	0	0	0	0	528
10	0	0	0	0	527
11	0	0	0	0	541
12	0	0	0	0	537
13	0	0	0	0	558
14	0	0	0	0	549
15	0	0	0	0	564
0	0	0	0	0	569
1	0	0	0	0	572
2	0	0	0	0	566
3	0	0	0	0	529
4	0	0	0	0	502
5	0	0	0	0	472
6	0	0	0	0	460
7	0	0	0	0	447
8	0	0	0	0	455
9	0	0	0	0	460
10	0	0	0	0	467
11	0	0	0	0	470
12	0	0	0	0	468
13	0	0	0	0	481
14	0	0	0	0	485
15	0	0	0	0	484
0	0	0	0	0	493
1	0	0	0	0	492
2	0	0	0	0	488
3	0	0	0	0	493
4	0	0	0	0	504
5	0	0	0	0	505
6	0	0	0	0	497
7	0	0	0	0	501
8	0	0	0	0	506
9	0	0	0	0	509
10	0	0	0	0	508
11	0	0	0	0	511
12	0	0	0	0	513
13	0	0	0	0	513
14	0	0	0	0	506
15	0	0	0	0	517
0	0	0	0	0	507
1	0	0	0	0	520
2	0	0	0	0	512
3	0	0	0	0	518
4	0	0	0	0	515
5	0	0	0	0	517
6	0	0	0	0	514
7	0	0	0	0	524
8	0	0	0	0	519
9	0	0	0	0	521
10	0	0	0	0	525
11	0	0	0	0	553
12	0	0	0	0	536
13	0	0	0	0	537
14	0	0	0	0	543
15	0	0	0	0	508
0	0	0	0	0	505
1	0	0	0	0	496
2	0	0	0	0	496
3	0	0	0	0	497
4	0	0	0	0	507
5	0	0	0	0	496
6	0	0	0	0	510
7	0	0	0	0	462
8	0	0	0	0	481
9	0	0	0	0	663
10	0	0	0	0	888
11	0	0	0	0	524
12	0	0	0	0	255
13	0	0	0	0	354
14	0	0	0	0	467
15	0	0	0	0	503
0	0	0	0	0	509
1	0	0	0	0	513
2	0	0	0	0	516
3	0	0	0	0	513
4	0	0	0	0	510
5	0	0	0	0	523
6	0	0	0	0	523
7	0	0	0	0	524
8	0	0	0	0	528
9	0	0	0	0	521
10	0	0	0	0	524
11	0	0	0	0	529
12	0	0	0	0	543
13	0	0	0	0	532
14	0	0	0	0	543
15	0	0	0	0	558
0	0	0	0	0	554
1	0	0	0	0	575
2	0	0	0	0	565
3	0	0	0	0	567
4	0	0	0	0	555
5	0	0	0	0	520
6	0	0	0	0	495
7	0	0	0	0	469
8	0	0	0	0	455
9	0	0	0	0	456
10	0	0	0	0	453
11	0	0	0	0	454
12	0	0	0	0	465
13	0	0	0	0	469
14	0	0	0	0	472
15	0	0	0	0	480
0	0	0	0	0	488
1	0	0	0	0	483
2	0	0	0	0	496
3	0	0	0	0	501
4	0	0	0	0	487
5	0	0	0	0	502
6	0	0	0	0	499
7	0	0	0	0	502
8	0	0	0	0	505
9	0	0	0	0	501
10	0	0	0	0	510
11	0	0	0	0	512
12	0	0	0	0	511
13	0	0	0	0	511
14	0	0	0	0	519
15	0	0	0	0	505
0	0	0	0	0	503
1	0	0	0	0	511
2	0	0	0	0	512
3	0	0	0	0	514
4	0	0	0	0	520
5	0	0	0	0	512
6	0	0	0	0	517
7	0	0	0	0	514
8	0	0	0	0	507
9	0	0	0	0	519
10	0	0	0	0	517
11	0	0	0	0	518
12	0	0	0	0	517
13	0	0	0	0	518
14	0	0	0	0	540
15	0	0	0	0	537
0	0	0	0	0	531
1	0	0	0	0	537
2	0	0	0	0	531
3	0	0	0	0	521
4	0	0	0	0	508
5	0	0	0	0	494
6	0	0	0	0	497
7	0	0	0	0	506
8	0	0	0	0	495
9	0	0	0	0	500
10	0	0	0	0	506
11	0	0	0	0	463
12	0	0	0	0	521
13	0	0	0	0	776
14	0	0	0	0	852
15	0	0	0	0	318
0	0	0	0	0	281
1	0	0	0	0	401
2	0	0	0	0	483
3	0	0	0	0	508
4	0	0	0	0	515
5	0	0	0	0	512
6	0	0	0	0	515
7	0	0	0	0	515
8	0	0	0	0	524
9	0	0	0	0	526
10	0	0	0	0	524
11	0	0	0	0	519
12	0	0	0	0	529
13	0	0	0	0	526
14	0	0	0	0	531
15	0	0	0	0	534
0	0	0	0	0	546
1	0	0	0	0	543
2	0	0	0	0	540
3	0	0	0	0	558
4	0	0	0	0	563
5	0	0	0	0	572
6	0	0	0	0	566
7	0	0	0	0	566
8	0	0	0	0	550
9	0	0	0	0	515
10	0	0	0	0	482
11	0	0	0	0	470
12	0	0	0	0	451
13	0	0	0	0	454
14	0	0	0	0	457
15	0	0	0	0	463
0	0	0	0	0	462
1	0	0	0	0	474
2	0	0	0	0	494
3	0	0	0	0	474
4	0	0	0	0	478
5	0	0	0	0	485
6	0	0	0	0	487
7	0	0	0	0	492
8	0	0	0	0	498
9	0	0	0	0	495
10	0	0	0	0	498
11	0	0	0	0	505
12	0	0	0	0	508
13	0	0	0	0	511
14	0	0	0	0	504
15	0	0	0	0	507
0	0	0	0	0	513
1	0	0	0	0	509
2	0	0	0	0	511
3	0	0	0	0	519
4	0	0	0	0	506
5	0	0	0	0	515
6	0	0	0	0	511
7	0	0	0	0	512
8	0	0	0	0	511
9	0	0	0	0	523
10	0	0	0	0	520
11	0	0	0	0	513
12	0	0	0	0	522
13	0	0	0	0	525
14	0	0	0	0	523
15	0	0	0	0	521
0	0	0	0	0	521
1	0	0	0	0	537
2	0	0	0	0	549
3	0	0	0	0	539
4	0	0	0	0	536
5	0	0	0	0	521
6	0	0	0	0	515
7	0	0	0	0	491
8	0	0	0	0	493
9	0	0	0	0	502
10	0	0	0	0	505
11	0	0	0	0	500
12	0	0	0	0	507
13	0	0	0	0	487
14	0	0	0	0	486
15	0	0	0	0	635
0	0	0	0	0	865
1	0	0	0	0	604
2	0	0	0	0	250
3	0	0	0	0	334
4	0	0	0	0	453
5	0	0	0	0	501
6	0	0	0	0	500
7	0	0	0	0	509
8	0	0	0	0	517
9	0	0	0	0	521
10	0	0	0	0	516
11	0	0	0	0	522
12	0	0	0	0	529
13	0	0	0	0	525
14	0	0	0	0	525
15	0	0	0	0	532
0	0	0	0	0	532
1	0	0	0	0	526
2	0	0	0	0	539
3	0	0	0	0	535
4	0	0	0	0	551
5	0	0	0	0	567
6	0	0	0	0	554
7	0	0	0	0	567
8	0	0	0	0	564
9	0	0	0	0	568
10	0	0	0	0	551
11	0	0	0	0	537
12	0	0	0	0	500
13	0	0	0	0	473
14	0	0	0	0	457
15	0	0	0	0	453
0	0	0	0	0	448
1	0	0	0	0	451
2	0	0	0	0	470
3	0	0	0	0	467
4	0	0	0	0	476
5	0	0	0	0	481
6	0	0	0	0	480
7	0	0	0	0	493
8	0	0	0	0	481
9	0	0	0	0	490
10	0	0	0	0	499
11	0	0	0	0	494
12	0	0	0	0	496
13	0	0	0	0	499
14	0	0	0	0	505
15	0	0	0	0	500
0	0	0	0	0	505
1	0	0	0	0	513
2	0	0	0	0	511
3	0	0	0	0	515
4	0	0	0	0	512
5	0	0	0	0	510
6	0	0	0	0	520
7	0	0	0	0	509
8	0	0	0	0	525
9	0	0	0	0	512
10	0	0	0	0	517
11	0	0	0	0	505
12	0	0	0	0	512
13	0	0	0	0	520
14	0	0	0	0	519
15	0	0	0	0	515
0	0	0	0	0	511
1	0	0	0	0	532
2	0	0	0	0	527
3	0	0	0	0	529
4	0	0	0	0	526
5	0	0	0	0	537
6	0	0	0	0	540
7	0	0	0	0	539
8	0	0	0	0	533
9	0	0	0	0	507
10	0	0	0	0	505
11	0	0	0	0	496
12	0	0	0	0	491
13	0	0	0	0	493
14	0	0	0	0	501
15	0	0	0	0	503
0	0	0	0	0	496
1	0	0	0	0	462
2	0	0	0	0	589
3	0	0	0	0	852
4	0	0	0	0	724
5	0	0	0	0	254
6	0	0	0	0	307
7	0	0	0	0	435
8	0	0	0	0	487
9	0	0	0	0	504
10	0	0	0	0	522
11	0	0	0	0	512
12	0	0	0	0	525
13	0	0	0	0	523
14	0	0	0	0	518
15	0	0	0	0	521
0	0	0	0	0	532
1	0	0	0	0	529
2	0	0	0	0	517
3	0	0	0	0	526
4	0	0	0	0	528
5	0	0	0	0	533
6	0	0	0	0	540
7	0	0	0	0	548
8	0	0	0	0	548
9	0	0	0	0	560
10	0	0	0	0	563
11	0	0	0	0	568
12	0	0	0	0	573
13	0	0	0	0	564
14	0	0	0	0	539
15	0	0	0	0	499
0	0	0	0	0	473
1	0	0	0	0	459
2	0	0	0	0	442
3	0	0	0	0	453
4	0	0	0	0	466
5	0	0	0	0	467
6	0	0	0	0	463
7	0	0	0	0	476
8	0	0	0	0	469
9	0	0	0	0	474
10	0	0	0	0	491
11	0	0	0	0	485
12	0	0	0	0	494
13	0	0	0	0	491
14	0	0	0	0	498
15	0	0	0	0	503
0	0	0	0	0	506
1	0	0	0	0	502
2	0	0	0	0	506
3	0	0	0	0	501
4	0	0	0	0	508
5	0	0	0	0	523
6	0	0	0	0	497
7	0	0	0	0	507
8	0	0	0	0	514
9	0	0	0	0	511
10	0	0	0	0	520
11	0	0	0	0	511
12	0	0	0	0	509
13	0	0	0	0	517
14	0	0	0	0	517
15	0	0	0	0	514
0	0	0	0	0	516
1	0	0	0	0	526
2	0	0	0	0	530
3	0	0	0	0	547
4	0	0	0	0	556
5	0	0	0	0	538
6	0	0	0	0	520
7	0	0	0	0	520
8	0	0	0	0	502
9	0	0	0	0	493
10	0	0	0	0	498
11	0	0	0	0	490
12	0	0	0	0	505
13	0	0	0	0	497
14	0	0	0	0	502
15	0	0	0	0	455
0	0	0	0	0	524
1	0	0	0	0	772
2	0	0	0	0	870
3	0	0	0	0	335
4	0	0	0	0	268
5	0	0	0	0	380
6	0	0	0	0	477
7	0	0	0	0	511
8	0	0	0	0	514
9	0	0	0	0	521
10	0	0	0	0	520
11	0	0	0	0	520
12	0	0	0	0	526
13	0	0	0	0	535
14	0	0	0	0	524
15	0	0	0	0	529
0	0	0	0	0	527
1	0	0	0	0	536
2	0	0	0	0	529
3	0	0	0	0	538
4	0	0	0	0	548
5	0	0	0	0	554
6	0	0	0	0	564
7	0	0	0	0	564
8	0	0	0	0	575
9	0	0	0	0	573
10	0	0	0	0	580
11	0	0	0	0	582
12	0	0	0	0	552
13	0	0	0	0	510
14	0	0	0	0	481
15	0	0	0	0	453
0	0	0	0	0	448
1	0	0	0	0	442
2	0	0	0	0	448
3	0	0	0	0	449
4	0	0	0	0	464
5	0	0	0	0	462
6	0	0	0	0	469
7	0	0	0	0	483
8	0	0	0	0	485
9	0	0	0	0	480
10	0	0	0	0	488
11	0	0	0	0	486
12	0	0	0	0	491
13	0	0	0	0	497
14	0	0	0	0	504
15	0	0	0	0	498
0	0	0	0	0	505
1	0	0	0	0	518
2	0	0	0	0	511
3	0	0	0	0	507
4	0	0	0	0	508
5	0	0	0	0	510
6	0	0	0	0	516
7	0	0	0	0	522
8	0	0	0	0	525
9	0	0	0	0	530
10	0	0	0	0	532
11	0	0	0	0	540
12	0	0	0	0	542
13	0	0	0	0	537
14	0	0	0	0	518
15	0	0	0	0	501
0	0	0	0	0	503
1	0	0	0	0	521
2	0	0	0	0	499
3	0	0	0	0	494
4	0	0	0	0	499
5	0	0	0	0	507
6	0	0	0	0	479
7	0	0	0	0	471
8	0	0	0	0	647
9	0	0	0	0	883
10	0	0	0	0	486
11	0	0	0	0	265
12	0	0	0	0	343
13	0	0	0	0	467
14	0	0	0	0	512
15	0	0	0	0	513
0	0	0	0	0	524
1	0	0	0	0	522
2	0	0	0	0	548
3	0	0	0	0	527
4	0	0	0	0	525
5	0	0	0	0	531
6	0	0	0	0	523
7	0	0	0	0	544
8	0	0	0	0	535
9	0	0	0	0	543
10	0	0	0	0	548
11	0	0	0	0	543
12	0	0	0	0	542
13	0	0	0	0	560
14	0	0	0	0	551
15	0	0	0	0	572
0	0	0	0	0	567
1	0	0	0	0	585
2	0	0	0	0	576
3	0	0	0	0	543
4	0	0	0	0	500
5	0	0	0	0	467
6	0	0	0	0	455
7	0	0	0	0	456
8	0	0	0	0	446
9	0	0	0	0	450
10	0	0	0	0	463
11	0	0	0	0	478
12	0	0	0	0	473
13	0	0	0	0	467
14	0	0	0	0	487
15	0	0	0	0	479
0	0	0	0	0	489
1	0	0	0	0	489
2	0	0	0	0	494
3	0	0	0	0	497
4	0	0	0	0	487
5	0	0	0	0	503
6	0	0	0	0	502
7	0	0	0	0	503
8	0	0	0	0	507
9	0	0	0	0	511
10	0	0	0	0	503
11	0	0	0	0	512
12	0	0	0	0	503
13	0	0	0	0	516
14	0	0	0	0	516
15	0	0	0	0	520
0	0	0	0	0	533
1	0	0	0	0	544
2	0	0	0	0	533
3	0	0	0	0	529
4	0	0	0	0	525
5	0	0	0	0	503
6	0	0	0	0	501
7	0	0	0	0	499
8	0	0	0	0	502
9	0	0	0	0	491
10	0	0	0	0	501
11	0	0	0	0	503
12	0	0	0	0	493
13	0	0	0	0	462
14	0	0	0	0	594
15	0	0	0	0	841
0	0	0	0	0	690
1	0	0	0	0	292
2	0	0	0	0	335
3	0	0	0	0	443
4	0	0	0	0	497
5	0	0	0	0	507
6	0	0	0	0	527
7	0	0	0	0	517
8	0	0	0	0	510
9	0	0	0	0	525
10	0	0	0	0	515
11	0	0	0	0	515
12	0	0	0	0	525
13	0	0	0	0	519
14	0	0	0	0	530
15	0	0	0	0	523
0	0	0	0	0	537
1	0	0	0	0	541
2	0	0	0	0	533
3	0	0	0	0	544
4	0	0	0	0	548
5	0	0	0	0	556
6	0	0	0	0	573
7	0	0	0	0	580
8	0	0	0	0	574
9	0	0	0	0	548
10	0	0	0	0	519
11	0	0	0	0	495
12	0	0	0	0	477
13	0	0	0	0	454
14	0	0	0	0	444
15	0	0	0	0	456
0	0	0	0	0	455
1	0	0	0	0	466
2	0	0	0	0	463
3	0	0	0	0	488
4	0	0	0	0	490
5	0	0	0	0	480
6	0	0	0	0	495
7	0	0	0	0	499
8	0	0	0	0	500
9	0	0	0	0	495
10	0	0	0	0	499
11	0	0	0	0	511
12	0	0	0	0	513
13	0	0	0	0	515
14	0	0	0	0	508
15	0	0	0	0	514
0	0	0	0	0	508
1	0	0	0	0	529
2	0	0	0	0	532
3	0	0	0	0	535
4	0	0	0	0	554
5	0	0	0	0	549
6	0	0	0	0	546
7	0	0	0	0	555
8	0	0	0	0	537
9	0	0	0	0	529
10	0	0	0	0	519
11	0	0	0	0	515
12	0	0	0	0	509
13	0	0	0	0	524
14	0	0	0	0	524
15	0	0	0	0	521
0	0	0	0	0	515
1	0	0	0	0	489
2	0	0	0	0	615
3	0	0	0	0	872
4	0	0	0	0	725
5	0	0	0	0	303
6	0	0	0	0	351
7	0	0	0	0	463
8	0	0	0	0	515
9	0	0	0	0	537
10	0	0	0	0	532
11	0	0	0	0	534
12	0	0	0	0	536
13	0	0	0	0	543
14	0	0	0	0	539
15	0	0	0	0	552
0	0	0	0	0	549
1	0	0	0	0	550
2	0	0	0	0	560
3	0	0	0	0	548
4	0	0	0	0	550
5	0	0	0	0	560
6	0	0	0	0	563
7	0	0	0	0	569
8	0	0	0	0	572
9	0	0	0	0	586
10	0	0	0	0	591
11	0	0	0	0	585
12	0	0	0	0	584
13	0	0	0	0	573
14	0	0	0	0	539
15	0	0	0	0	500
0	0	0	0	0	478
1	0	0	0	0	462
2	0	0	0	0	457
3	0	0	0	0	455
4	0	0	0	0	458
5	0	0	0	0	463
6	0	0	0	0	467
7	0	0	0	0	470
8	0	0	0	0	472
9	0	0	0	0	486
10	0	0	0	0	480
11	0	0	0	0	481
12	0	0	0	0	473
13	0	0	0	0	484
14	0	0	0	0	476
15	0	0	0	0	486
0	0	0	0	0	481
1	0	0	0	0	487
2	0	0	0	0	487
3	0	0	0	0	483
4	0	0	0	0	472
5	0	0	0	0	478
6	0	0	0	0	480
7	0	0	0	0	490
8	0	0	0	0	487
9	0	0	0	0	496
10	0	0	0	0	492
11	0	0	0	0	499
12	0	0	0	0	504
13	0	0	0	0	504
14	0	0	0	0	494
15	0	0	0	0	507
0	0	0	0	0	482
1	0	0	0	0	469
2	0	0	0	0	463
3	0	0	0	0	467
4	0	0	0	0	468
5	0	0	0	0	463
6	0	0	0	0	456
7	0	0	0	0	476
8	0	0	0	0	450
9	0	0	0	0	446
10	0	0	0	0	610
11	0	0	0	0	876
12	0	0	0	0	583
13	0	0	0	0	239
14	0	0	0	0	318
15	0	0	0	0	436
0	0	0	0	0	462
1	0	0	0	0	480
2	0	0	0	0	492
3	0	0	0	0	497
4	0	0	0	0	490
5	0	0	0	0	500
6	0	0	0	0	504
7	0	0	0	0	504
8	0	0	0	0	507
9	0	0	0	0	509
10	0	0	0	0	509
11	0	0	0	0	525
12	0	0	0	0	513
13	0	0	0	0	535
14	0	0	0	0	527
15	0	0	0	0	540
0	0	0	0	0	549
1	0	0	0	0	565
2	0	0	0	0	571
3	0	0	0	0	572
4	0	0	0	0	573
5	0	0	0	0	553
6	0	0	0	0	511
7	0	0	0	0	484
8	0	0	0	0	452
9	0	0	0	0	442
10	0	0	0	0	437
11	0	0	0	0	449
12	0	0	0	0	455
13	0	0	0	0	456
14	0	0	0	0	454
15	0	0	0	0	475
0	0	0	0	0	472
1	0	0	0	0	475
2	0	0	0	0	481
3	0	0	0	0	490
4	0	0	0	0	491
5	0	0	0	0	489
6	0	0	0	0	487
7	0	0	0	0	497
8	0	0	0	0	498
9	0	0	0	0	507
10	0	0	0	0	509
11	0	0	0	0	507
12	0	0	0	0	499
13	0	0	0	0	507
14	0	0	0	0	510
15	0	0	0	0	518
0	0	0	0	0	521
1	0	0	0	0	514
2	0	0	0	0	515
3	0	0	0	0	515
4	0	0	0	0	507
5	0	0	0	0	519
6	0	0	0	0	522
7	0	0	0	0	517
8	0	0	0	0	515
9	0	0	0	0	517
10	0	0	0	0	522
11	0	0	0	0	513
12	0	0	0	0	528
13	0	0	0	0	526
14	0	0	0	0	526
15	0	0	0	0	532
0	0	0	0	0	547
1	0	0	0	0	532
2	0	0	0	0	536
3	0	0	0	0	539
4	0	0	0	0	520
5	0	0	0	0	507
6	0	0	0	0	493
7	0	0	0	0	511
8	0	0	0	0	492
9	0	0	0	0	495
10	0	0	0	0	492
11	0	0	0	0	501
12	0	0	0	0	475
13	0	0	0	0	464
14	0	0	0	0	636
15	0	0	0	0	916
0	0	0	0	0	656
1	0	0	0	0	266
2	0	0	0	0	328
3	0	0	0	0	444
4	0	0	0	0	487
5	0	0	0	0	502
6	0	0	0	0	507
7	0	0	0	0	505
8	0	0	0	0	510
9	0	0	0	0	523
10	0	0	0	0	521
11	0	0	0	0	520
12	0	0	0	0	536
13	0	0	0	0	527
14	0	0	0	0	531
15	0	0	0	0	532
0	0	0	0	0	534
1	0	0	0	0	537
2	0	0	0	0	543
3	0	0	0	0	550
4	0	0	0	0	566
5	0	0	0	0	568
6	0	0	0	0	571
7	0	0	0	0	583
8	0	0	0	0	585
9	0	0	0	0	583
10	0	0	0	0	535
11	0	0	0	0	501
12	0	0	0	0	472
13	0	0	0	0	462
14	0	0	0	0	454
15	0	0	0	0	453
0	0	0	0	0	450
1	0	0	0	0	458
2	0	0	0	0	471
3	0	0	0	0	485
4	0	0	0	0	477
5	0	0	0	0	482
6	0	0	0	0	494
7	0	0	0	0	495
8	0	0	0	0	491
9	0	0	0	0	499
10	0	0	0	0	501
11	0	0	0	0	508
12	0	0	0	0	504
13	0	0	0	0	510
14	0	0	0	0	512
15	0	0	0	0	508
0	0	0	0	0	508
1	0	0	0	0	516
2	0	0	0	0	520
3	0	0	0	0	524
4	0	0	0	0	529
5	0	0	0	0	517
6	0	0	0	0	524
7	0	0	0	0	524
8	0	0	0	0	526
9	0	0	0	0	526
10	0	0	0	0	515
11	0	0	0	0	526
12	0	0	0	0	524
13	0	0	0	0	520
14	0	0	0	0	522
15	0	0	0	0	527
0	0	0	0	0	520
1	0	0	0	0	537
2	0	0	0	0	519
3	0	0	0	0	522
4	0	0	0	0	535
5	0	0	0	0	528
6	0	0	0	0	530
7	0	0	0	0	532
8	0	0	0	0	550
9	0	0	0	0	547
10	0	0	0	0	537
11	0	0	0	0	536
12	0	0	0	0	527
13	0	0	0	0	506
14	0	0	0	0	501
15	0	0	0	0	502
0	0	0	0	0	504
1	0	0	0	0	509
2	0	0	0	0	506
3	0	0	0	0	506
4	0	0	0	0	487
5	0	0	0	0	472
6	0	0	0	0	636
7	0	0	0	0	912
8	0	0	0	0	635
9	0	0	0	0	281
10	0	0	0	0	328
11	0	0	0	0	444
12	0	0	0	0	494
13	0	0	0	0	507
14	0	0	0	0	509
15	0	0	0	0	517
0	0	0	0	0	511
1	0	0	0	0	529
2	0	0	0	0	526
3	0	0	0	0	525
4	0	0	0	0	526
5	0	0	0	0	531
6	0	0	0	0	517
7	0	0	0	0	533
8	0	0	0	0	542
9	0	0	0	0	548
10	0	0	0	0	544
11	0	0	0	0	555
12	0	0	0	0	567
13	0	0	0	0	575
14	0	0	0	0	584
15	0	0	0	0	593
0	0	0	0	0	583
1	0	0	0	0	575
2	0	0	0	0	537
3	0	0	0	0	498
4	0	0	0	0	461
5	0	0	0	0	450
6	0	0	0	0	443
7	0	0	0	0	441
8	0	0	0	0	446
9	0	0	0	0	446
10	0	0	0	0	463
11	0	0	0	0	479
12	0	0	0	0	470
13	0	0	0	0	478
14	0	0	0	0	478
15	0	0	0	0	487
0	0	0	0	0	487
1	0	0	0	0	504
2	0	0	0	0	494
3	0	0	0	0	500
4	0	0	0	0	492
5	0	0	0	0	499
6	0	0	0	0	508
7	0	0	0	0	504
8	0	0	0	0	509
9	0	0	0	0	520
10	0	0	0	0	505
11	0	0	0	0	512
12	0	0	0	0	513
13	0	0	0	0	519
14	0	0	0	0	513
15	0	0	0	0	511
0	0	0	0	0	513
1	0	0	0	0	520
2	0	0	0	0	520
3	0	0	0	0	516
4	0	0	0	0	523
5	0	0	0	0	521
6	0	0	0	0	526
7	0	0	0	0	534
8	0	0	0	0	544
9	0	0	0	0	542
10	0	0	0	0	543
11	0	0	0	0	538
12	0	0	0	0	515
13	0	0	0	0	511
14	0	0	0	0	504
15	0	0	0	0	505
0	0	0	0	0	496
1	0	0	0	0	502
2	0	0	0	0	504
3	0	0	0	0	512
4	0	0	0	0	452
5	0	0	0	0	508
6	0	0	0	0	749
7	0	0	0	0	866
8	0	0	0	0	378
9	0	0	0	0	315
10	0	0	0	0	414
11	0	0	0	0	470
12	0	0	0	0	487
13	0	0	0	0	504
14	0	0	0	0	507
15	0	0	0	0	512
0	0	0	0	0	510
1	0	0	0	0	520
2	0	0	0	0	516
3	0	0	0	0	528
4	0	0	0	0	533
5	0	0	0	0	519
6	0	0	0	0	526
7	0	0	0	0	521
8	0	0	0	0	527
9	0	0	0	0	547
10	0	0	0	0	540
11	0	0	0	0	554
12	0	0	0	0	555
13	0	0	0	0	577
14	0	0	0	0	573
15	0	0	0	0	569
0	0	0	0	0	577
1	0	0	0	0	540
2	0	0	0	0	499
3	0	0	0	0	477
4	0	0	0	0	455
5	0	0	0	0	445
6	0	0	0	0	447
7	0	0	0	0	452
8	0	0	0	0	447
9	0	0	0	0	469
10	0	0	0	0	472
11	0	0	0	0	470
12	0	0	0	0	473
13	0	0	0	0	480
14	0	0	0	0	487
15	0	0	0	0	497
0	0	0	0	0	492
1	0	0	0	0	486
2	0	0	0	0	486
3	0	0	0	0	500
4	0	0	0	0	502
5	0	0	0	0	502
6	0	0	0	0	506
7	0	0	0	0	512
8	0	0	0	0	515
9	0	0	0	0	508
10	0	0	0	0	507
11	0	0	0	0	515
12	0	0	0	0	506
13	0	0	0	0	520
14	0	0	0	0	512
15	0	0	0	0	517
0	0	0	0	0	510
1	0	0	0	0	521
2	0	0	0	0	519
3	0	0	0	0	507
4	0	0	0	0	512
5	0	0	0	0	519
6	0	0	0	0	527
7	0	0	0	0	532
8	0	0	0	0	525
9	0	0	0	0	545
10	0	0	0	0	535
11	0	0	0	0	532
12	0	0	0	0	540
13	0	0	0	0	522
14	0	0	0	0	504
15	0	0	0	0	501
0	0	0	0	0	488
1	0	0	0	0	492
2	0	0	0	0	507
3	0	0	0	0	514
4	0	0	0	0	503
5	0	0	0	0	466
6	0	0	0	0	504
7	0	0	0	0	724
8	0	0	0	0	883
9	0	0	0	0	435
10	0	0	0	0	292
11	0	0	0	0	389
12	0	0	0	0	466
13	0	0	0	0	499
14	0	0	0	0	501
15	0	0	0	0	496
0	0	0	0	0	510
1	0	0	0	0	515
2	0	0	0	0	508
3	0	0	0	0	532
4	0	0	0	0	519
5	0	0	0	0	511
6	0	0	0	0	524
7	0	0	0	0	527
8	0	0	0	0	531
9	0	0	0	0	527
10	0	0	0	0	530
11	0	0	0	0	538
12	0	0	0	0	547
13	0	0	0	0	551
14	0	0	0	0	556
15	0	0	0	0	570
0	0	0	0	0	573
1	0	0	0	0	572
2	0	0	0	0	557
3	0	0	0	0	516
4	0	0	0	0	476
5	0	0	0	0	461
6	0	0	0	0	441
7	0	0	0	0	452
8	0	0	0	0	456
9	0	0	0	0	465
10	0	0	0	0	467
11	0	0	0	0	470
12	0	0	0	0	461
13	0	0	0	0	480
14	0	0	0	0	487
15	0	0	0	0	487
0	0	0	0	0	498
1	0	0	0	0	503
2	0	0	0	0	483
3	0	0	0	0	483
4	0	0	0	0	496
5	0	0	0	0	502
6	0	0	0	0	508
7	0	0	0	0	502
8	0	0	0	0	508
9	0	0	0	0	513
10	0	0	0	0	506
11	0	0	0	0	513
12	0	0	0	0	505
13	0	0	0	0	508
14	0	0	0	0	514
15	0	0	0	0	518
0	0	0	0	0	513
1	0	0	0	0	519
2	0	0	0	0	513
3	0	0	0	0	514
4	0	0	0	0	518
5	0	0	0	0	524
6	0	0	0	0	511
7	0	0	0	0	520
8	0	0	0	0	510
9	0	0	0	0	524
10	0	0	0	0	519
11	0	0	0	0	511
12	0	0	0	0	519
13	0	0	0	0	519
14	0	0	0	0	511
15	0	0	0	0	524
0	0	0	0	0	515
1	0	0	0	0	510
2	0	0	0	0	512
3	0	0	0	0	529
4	0	0	0	0	517
5	0	0	0	0	505
6	0	0	0	0	522
7	0	0	0	0	522
8	0	0	0	0	516
9	0	0	0	0	522
10	0	0	0	0	515
11	0	0	0	0	530
12	0	0	0	0	536
13	0	0	0	0	529
14	0	0	0	0	532
15	0	0	0	0	544
0	0	0	0	0	534
1	0	0	0	0	512
2	0	0	0	0	500
3	0	0	0	0	483
4	0	0	0	0	494
5	0	0	0	0	497
6	0	0	0	0	497
7	0	0	0	0	493
8	0	0	0	0	504
9	0	0	0	0	446
10	0	0	0	0	540
11	0	0	0	0	792
12	0	0	0	0	877
13	0	0	0	0	361
14	0	0	0	0	299
15	0	0	0	0	400
0	0	0	0	0	472
1	0	0	0	0	475
2	0	0	0	0	492
3	0	0	0	0	499
4	0	0	0	0	502
5	0	0	0	0	515
6	0	0	0	0	506
7	0	0	0	0	517
8	0	0	0	0	511
9	0	0	0	0	515
10	0	0	0	0	522
11	0	0	0	0	523
12	0	0	0	0	526
13	0	0	0	0	535
14	0	0	0	0	539
15	0	0	0	0	536
0	0	0	0	0	548
1	0	0	0	0	562
2	0	0	0	0	558
3	0	0	0	0	567
4	0	0	0	0	575
5	0	0	0	0	580
6	0	0	0	0	561
7	0	0	0	0	520
8	0	0	0	0	505
9	0	0	0	0	459
10	0	0	0	0	457
11	0	0	0	0	443
12	0	0	0	0	445
13	0	0	0	0	445
14	0	0	0	0	458
15	0	0	0	0	466
0	0	0	0	0	475
1	0	0	0	0	477
2	0	0	0	0	481
3	0	0	0	0	484
4	0	0	0	0	488
5	0	0	0	0	496
6	0	0	0	0	492
7	0	0	0	0	494
8	0	0	0	0	499
9	0	0	0	0	503
10	0	0	0	0	499
11	0	0	0	0	496
12	0	0	0	0	504
13	0	0	0	0	508
14	0	0	0	0	507
15	0	0	0	0	519
0	0	0	0	0	513
1	0	0	0	0	512
2	0	0	0	0	509
3	0	0	0	0	509
4	0	0	0	0	510
5	0	0	0	0	524
6	0	0	0	0	515
7	0	0	0	0	515
8	0	0	0	0	517
9	0	0	0	0	519
10	0	0	0	0	516
11	0	0	0	0	520
12	0	0	0	0	513
13	0	0	0	0	512
14	0	0	0	0	523
15	0	0	0	0	525
0	0	0	0	0	507
1	0	0	0	0	521
2	0	0	0	0	524
3	0	0	0	0	511
4	0	0	0	0	520
5	0	0	0	0	520
6	0	0	0	0	516
7	0	0	0	0	517
8	0	0	0	0	516
9	0	0	0	0	520
10	0	0	0	0	524
11	0	0	0	0	515
12	0	0	0	0	512
13	0	0	0	0	531
14	0	0	0	0	523
15	0	0	0	0	516
0	0	0	0	0	530
1	0	0	0	0	543
2	0	0	0	0	533
3	0	0	0	0	537
4	0	0	0	0	531
5	0	0	0	0	512
6	0	0	0	0	499
7	0	0	0	0	503
8	0	0	0	0	492
9	0	0	0	0	494
10	0	0	0	0	491
11	0	0	0	0	503
12	0	0	0	0	501
13	0	0	0	0	455
14	0	0	0	0	574
15	0	0	0	0	883
0	0	0	0	0	707
1	0	0	0	0	296
2	0	0	0	0	312
3	0	0	0	0	428
4	0	0	0	0	484
5	0	0	0	0	487
6	0	0	0	0	503
7	0	0	0	0	508
8	0	0	0	0	519
9	0	0	0	0	512
10	0	0	0	0	525
11	0	0	0	0	519
12	0	0	0	0	522
13	0	0	0	0	522
14	0	0	0	0	524
15	0	0	0	0	526
0	0	0	0	0	536
1	0	0	0	0	531
2	0	0	0	0	545
3	0	0	0	0	543
4	0	0	0	0	559
5	0	0	0	0	561
6	0	0	0	0	576
7	0	0	0	0	579
8	0	0	0	0	584
9	0	0	0	0	583
10	0	0	0	0	555
11	0	0	0	0	514
12	0	0	0	0	476
13	0	0	0	0	461
14	0	0	0	0	439
15	0	0	0	0	433
0	0	0	0	0	443
1	0	0	0	0	453
2	0	0	0	0	452
3	0	0	0	0	463
4	0	0	0	0	475
5	0	0	0	0	472
6	0	0	0	0	475
7	0	0	0	0	483
8	0	0	0	0	474
9	0	0	0	0	492
10	0	0	0	0	495
11	0	0	0	0	495
12	0	0	0	0	506
13	0	0	0	0	497
14	0	0	0	0	499
15	0	0	0	0	500
0	0	0	0	0	500
1	0	0	0	0	500
2	0	0	0	0	516
3	0	0	0	0	515
4	0	0	0	0	512
5	0	0	0	0	518
6	0	0	0	0	516
7	0	0	0	0	507
8	0	0	0	0	518
9	0	0	0	0	507
10	0	0	0	0	522
11	0	0	0	0	513
12	0	0	0	0	524
13	0	0	0	0	520
14	0	0	0	0	518
15	0	0	0	0	523
0	0	0	0	0	519
1	0	0	0	0	531
2	0	0	0	0	541
3	0	0	0	0	542
4	0	0	0	0	532
5	0	0	0	0	528
6	0	0	0	0	495
7	0	0	0	0	510
8	0	0	0	0	508
9	0	0	0	0	506
10	0	0	0	0	497
11	0	0	0	0	495
12	0	0	0	0	500
13	0	0	0	0	453
14	0	0	0	0	497
15	0	0	0	0	717
0	0	0	0	0	888
1	0	0	0	0	444
2	0	0	0	0	275
3	0	0	0	0	375
4	0	0	0	0	463
5	0	0	0	0	502
6	0	0	0	0	507
7	0	0	0	0	511
8	0	0	0	0	509
9	0	0	0	0	511
10	0	0	0	0	515
11	0	0	0	0	525
12	0	0	0	0	515
13	0	0	0	0	524
14	0	0	0	0	527
15	0	0	0	0	529
0	0	0	0	0	523
1	0	0	0	0	541
2	0	0	0	0	537
3	0	0	0	0	549
4	0	0	0	0	548
5	0	0	0	0	556
6	0	0	0	0	564
7	0	0	0	0	572
8	0	0	0	0	579
9	0	0	0	0	577
10	0	0	0	0	572
11	0	0	0	0	519
12	0	0	0	0	484
13	0	0	0	0	471
14	0	0	0	0	449
15	0	0	0	0	450
0	0	0	0	0	455
1	0	0	0	0	451
2	0	0	0	0	467
3	0	0	0	0	469
4	0	0	0	0	471
5	0	0	0	0	478
6	0	0	0	0	480
7	0	0	0	0	484
8	0	0	0	0	487
9	0	0	0	0	487
10	0	0	0	0	489
11	0	0	0	0	505
12	0	0	0	0	502
13	0	0	0	0	509
14	0	0	0	0	504
15	0	0	0	0	501
0	0	0	0	0	504
1	0	0	0	0	515
2	0	0	0	0	515
3	0	0	0	0	508
4	0	0	0	0	517
5	0	0	0	0	510
6	0	0	0	0	522
7	0	0	0	0	513
8	0	0	0	0	508
9	0	0	0	0	509
10	0	0	0	0	516
11	0	0	0	0	511
12	0	0	0	0	525
13	0	0	0	0	520
14	0	0	0	0	518
15	0	0	0	0	511
0	0	0	0	0	523
1	0	0	0	0	524
2	0	0	0	0	537
3	0	0	0	0	550
4	0	0	0	0	533
5	0	0	0	0	540
6	0	0	0	0	530
7	0	0	0	0	502
8	0	0	0	0	504
9	0	0	0	0	495
10	0	0	0	0	495
11	0	0	0	0	499
12	0	0	0	0	499
13	0	0	0	0	493
14	0	0	0	0	481
15	0	0	0	0	482
0	0	0	0	0	641
1	0	0	0	0	888
2	0	0	0	0	615
3	0	0	0	0	271
4	0	0	0	0	352
5	0	0	0	0	455
6	0	0	0	0	492
7	0	0	0	0	499
8	0	0	0	0	490
9	0	0	0	0	500
10	0	0	0	0	516
11	0	0	0	0	517
12	0	0	0	0	518
13	0	0	0	0	534
14	0	0	0	0	519
15	0	0	0	0	519
0	0	0	0	0	530
1	0	0	0	0	531
2	0	0	0	0	534
3	0	0	0	0	531
4	0	0	0	0	540
5	0	0	0	0	553
6	0	0	0	0	551
7	0	0	0	0	569
8	0	0	0	0	570
9	0	0	0	0	574
10	0	0	0	0	582
11	0	0	0	0	569
12	0	0	0	0	531
13	0	0	0	0	499
14	0	0	0	0	470
15	0	0	0	0	452
0	0	0	0	0	453
1	0	0	0	0	453
2	0	0	0	0	446
3	0	0	0	0	461
4	0	0	0	0	464
5	0	0	0	0	478
6	0	0	0	0	468
7	0	0	0	0	486
8	0	0	0	0	488
9	0	0	0	0	492
10	0	0	0	0	492
11	0	0	0	0	489
12	0	0	0	0	490
13	0	0	0	0	502
14	0	0	0	0	498
15	0	0	0	0	510
0	0	0	0	0	502
1	0	0	0	0	501
2	0	0	0	0	509
3	0	0	0	0	513
4	0	0	0	0	508
5	0	0	0	0	512
6	0	0	0	0	508
7	0	0	0	0	517
8	0	0	0	0	519
9	0	0	0	0	514
10	0	0	0	0	510
11	0	0	0	0	522
12	0	0	0	0	512
13	0	0	0	0	520
14	0	0	0	0	509
15	0	0	0	0	520
0	0	0	0	0	517
1	0	0	0	0	524
2	0	0	0	0	531
3	0	0	0	0	518
4	0	0	0	0	532
5	0	0	0	0	551
6	0	0	0	0	531
7	0	0	0	0	547
8	0	0	0	0	534
9	0	0	0	0	512
10	0	0	0	0	512
11	0	0	0	0	499
12	0	0	0	0	495
13	0	0	0	0	490
14	0	0	0	0	503
15	0	0	0	0	499
0	0	0	0	0	502
1	0	0	0	0	455
2	0	0	0	0	519
3	0	0	0	0	791
4	0	0	0	0	894
5	0	0	0	0	355
6	0	0	0	0	282
7	0	0	0	0	400
8	0	0	0	0	473
9	0	0	0	0	494
10	0	0	0	0	490
11	0	0	0	0	505
12	0	0	0	0	510
13	0	0	0	0	515
14	0	0	0	0	508
15	0	0	0	0	518
0	0	0	0	0	525
1	0	0	0	0	520
2	0	0	0	0	521
3	0	0	0	0	537
4	0	0	0	0	528
5	0	0	0	0	534
6	0	0	0	0	533
7	0	0	0	0	553
8	0	0	0	0	549
9	0	0	0	0	560
10	0	0	0	0	578
11	0	0	0	0	578
12	0	0	0	0	587
13	0	0	0	0	580
14	0	0	0	0	556
15	0	0	0	0	520
0	0	0	0	0	484
1	0	0	0	0	465
2	0	0	0	0	443
3	0	0	0	0	444
4	0	0	0	0	444
5	0	0	0	0	455
6	0	0	0	0	464
7	0	0	0	0	463
8	0	0	0	0	478
9	0	0	0	0	468
10	0	0	0	0	485
11	0	0	0	0	473
12	0	0	0	0	485
13	0	0	0	0	499
14	0	0	0	0	488
15	0	0	0	0	502
0	0	0	0	0	499
1	0	0	0	0	502
2	0	0	0	0	503
3	0	0	0	0	506
4	0	0	0	0	505
5	0	0	0	0	506
6	0	0	0	0	512
7	0	0	0	0	514
8	0	0	0	0	512
9	0	0	0	0	509
10	0	0	0	0	516
11	0	0	0	0	519
12	0	0	0	0	512
13	0	0	0	0	511
14	0	0	0	0	521
15	0	0	0	0	515
0	0	0	0	0	514
1	0	0	0	0	519
2	0	0	0	0	518
3	0	0	0	0	515
4	0	0	0	0	528
5	0	0	0	0	524
6	0	0	0	0	527
7	0	0	0	0	525
8	0	0	0	0	538
9	0	0	0	0	550
10	0	0	0	0	543
11	0	0	0	0	546
12	0	0	0	0	507
13	0	0	0	0	499
14	0	0	0	0	498
15	0	0	0	0	500
0	0	0	0	0	496
1	0	0	0	0	502
2	0	0	0	0	501
3	0	0	0	0	504
4	0	0	0	0	456
5	0	0	0	0	498
6	0	0	0	0	737
7	0	0	0	0	926
8	0	0	0	0	427
9	0	0	0	0	264
10	0	0	0	0	376
11	0	0	0	0	465
12	0	0	0	0	486
13	0	0	0	0	506
14	0	0	0	0	501
15	0	0	0	0	506
0	0	0	0	0	509
1	0	0	0	0	513
2	0	0	0	0	521
3	0	0	0	0	522
4	0	0	0	0	523
5	0	0	0	0	515
6	0	0	0	0	529
7	0	0	0	0	527
8	0	0	0	0	534
9	0	0	0	0	541
10	0	0	0	0	538
11	0	0	0	0	547
12	0	0	0	0	564
13	0	0	0	0	557
14	0	0	0	0	582
15	0	0	0	0	578
0	0	0	0	0	578
1	0	0	0	0	575
2	0	0	0	0	515
3	0	0	0	0	492
4	0	0	0	0	463
5	0	0	0	0	446
6	0	0	0	0	451
7	0	0	0	0	444
8	0	0	0	0	450
9	0	0	0	0	458
10	0	0	0	0	462
11	0	0	0	0	471
12	0	0	0	0	474
13	0	0	0	0	477
14	0	0	0	0	492
15	0	0	0	0	490
0	0	0	0	0	484
1	0	0	0	0	487
2	0	0	0	0	494
3	0	0	0	0	488
4	0	0	0	0	501
5	0	0	0	0	499
6	0	0	0	0	505
7	0	0	0	0	504
8	0	0	0	0	513
9	0	0	0	0	512
10	0	0	0	0	511
11	0	0	0	0	512
12	0	0	0	0	512
13	0	0	0	0	511
14	0	0	0	0	511
15	0	0	0	0	508
0	0	0	0	0	509
1	0	0	0	0	527
2	0	0	0	0	523
3	0	0	0	0	523
4	0	0	0	0	513
5	0	0	0	0	515
6	0	0	0	0	527
7	0	0	0	0	521
8	0	0	0	0	542
9	0	0	0	0	543
10	0	0	0	0	541
11	0	0	0	0	542
12	0	0	0	0	520
13	0	0	0	0	510
14	0	0	0	0	512
15	0	0	0	0	505
0	0	0	0	0	495
1	0	0	0	0	497
2	0	0	0	0	494
3	0	0	0	0	508
4	0	0	0	0	480
5	0	0	0	0	475
6	0	0	0	0	655
7	0	0	0	0	912
8	0	0	0	0	539
9	0	0	0	0	255
10	0	0	0	0	344
11	0	0	0	0	454
12	0	0	0	0	494
13	0	0	0	0	513
14	0	0	0	0	514
15	0	0	0	0	521
0	0	0	0	0	515
1	0	0	0	0	525
2	0	0	0	0	526
3	0	0	0	0	527
4	0	0	0	0	524
5	0	0	0	0	529
6	0	0	0	0	526
7	0	0	0	0	532
8	0	0	0	0	537
9	0	0	0	0	540
10	0	0	0	0	549
11	0	0	0	0	555
12	0	0	0	0	564
13	0	0	0	0	575
14	0	0	0	0	586
15	0	0	0	0	590
0	0	0	0	0	579
1	0	0	0	0	563
2	0	0	0	0	525
3	0	0	0	0	486
4	0	0	0	0	458
5	0	0	0	0	445
6	0	0	0	0	448
7	0	0	0	0	451
8	0	0	0	0	446
9	0	0	0	0	446
10	0	0	0	0	462
11	0	0	0	0	470
12	0	0	0	0	473
13	0	0	0	0	472
14	0	0	0	0	491
15	0	0	0	0	491
0	0	0	0	0	482
1	0	0	0	0	499
2	0	0	0	0	480
3	0	0	0	0	494
4	0	0	0	0	504
5	0	0	0	0	508
6	0	0	0	0	503
7	0	0	0	0	513
8	0	0	0	0	523
9	0	0	0	0	515
10	0	0	0	0	512
11	0	0	0	0	495
12	0	0	0	0	524
13	0	0	0	0	505
14	0	0	0	0	509
15	0	0	0	0	506
0	0	0	0	0	518
1	0	0	0	0	526
2	0	0	0	0	523
3	0	0	0	0	541
4	0	0	0	0	544
5	0	0	0	0	539
6	0	0	0	0	540
7	0	0	0	0	520
8	0	0	0	0	504
9	0	0	0	0	500
10	0	0	0	0	496
11	0	0	0	0	500
12	0	0	0	0	507
13	0	0	0	0	506
14	0	0	0	0	496
15	0	0	0	0	471
0	0	0	0	0	465
1	0	0	0	0	678
2	0	0	0	0	887
3	0	0	0	0	510
4	0	0	0	0	273
5	0	0	0	0	371
6	0	0	0	0	472
7	0	0	0	0	505
8	0	0	0	0	504
9	0	0	0	0	509
10	0	0	0	0	511
11	0	0	0	0	513
12	0	0	0	0	523
13	0	0	0	0	520
14	0	0	0	0	520
15	0	0	0	0	524
0	0	0	0	0	518
1	0	0	0	0	529
2	0	0	0	0	530
3	0	0	0	0	534
4	0	0	0	0	540
5	0	0	0	0	550
6	0	0	0	0	544
7	0	0	0	0	552
8	0	0	0	0	570
9	0	0	0	0	568
10	0	0	0	0	572
11	0	0	0	0	571
12	0	0	0	0	565
13	0	0	0	0	524
14	0	0	0	0	496
15	0	0	0	0	457
0	0	0	0	0	451
1	0	0	0	0	444
2	0	0	0	0	448
3	0	0	0	0	459
4	0	0	0	0	467
5	0	0	0	0	476
6	0	0	0	0	482
7	0	0	0	0	486
8	0	0	0	0	475
9	0	0	0	0	486
10	0	0	0	0	481
11	0	0	0	0	494
12	0	0	0	0	499
13	0	0	0	0	501
14	0	0	0	0	497
15	0	0	0	0	489
0	0	0	0	0	498
1	0	0	0	0	510
2	0	0	0	0	509
3	0	0	0	0	512
4	0	0	0	0	516
5	0	0	0	0	511
6	0	0	0	0	507
7	0	0	0	0	513
8	0	0	0	0	518
9	0	0	0	0	523
10	0	0	0	0	532
11	0	0	0	0	536
12	0	0	0	0	542
13	0	0	0	0	535
14	0	0	0	0	547
15	0	0	0	0	534
0	0	0	0	0	519
1	0	0	0	0	499
2	0	0	0	0	502
3	0	0	0	0	507
4	0	0	0	0	504
5	0	0	0	0	511
6	0	0	0	0	503
7	0	0	0	0	492
8	0	0	0	0	459
9	0	0	0	0	548
10	0	0	0	0	809
11	0	0	0	0	795
12	0	0	0	0	341
13	0	0	0	0	337
14	0	0	0	0	427
15	0	0	0	0	492
0	0	0	0	0	504
1	0	0	0	0	503
2	0	0	0	0	515
3	0	0	0	0	517
4	0	0	0	0	531
5	0	0	0	0	532
6	0	0	0	0	528
7	0	0	0	0	528
8	0	0	0	0	534
9	0	0	0	0	532
10	0	0	0	0	532
11	0	0	0	0	538
12	0	0	0	0	550
13	0	0	0	0	549
14	0	0	0	0	556
15	0	0	0	0	568
0	0	0	0	0	579
1	0	0	0	0	581
2	0	0	0	0	593
3	0	0	0	0	605
4	0	0	0	0	580
5	0	0	0	0	551
6	0	0	0	0	516
7	0	0	0	0	494
8	0	0	0	0	470
9	0	0	0	0	468
10	0	0	0	0	463
11	0	0	0	0	465
12	0	0	0	0	466
13	0	0	0	0	478
14	0	0	0	0	487
15	0	0	0	0	492
0	0	0	0	0	505
1	0	0	0	0	498
2	0	0	0	0	503
3	0	0	0	0	513
4	0	0	0	0	500
5	0	0	0	0	510
6	0	0	0	0	506
7	0	0	0	0	510
8	0	0	0	0	524
9	0	0	0	0	514
10	0	0	0	0	514
11	0	0	0	0	516
12	0	0	0	0	520
13	0	0	0	0	522
14	0	0	0	0	519
15	0	0	0	0	525
0	0	0	0	0	515
1	0	0	0	0	520
2	0	0	0	0	533
3	0	0	0	0	530
4	0	0	0	0	533
5	0	0	0	0	534
6	0	0	0	0	548
7	0	0	0	0	540
8	0	0	0	0	542
9	0	0	0	0	536
10	0	0	0	0	508
11	0	0	0	0	497
12	0	0	0	0	501
13	0	0	0	0	499
14	0	0	0	0	495
15	0	0	0	0	503
0	0	0	0	0	499
1	0	0	0	0	488
2	0	0	0	0	446
3	0	0	0	0	567
4	0	0	0	0	847
5	0	0	0	0	719
6	0	0	0	0	311
7	0	0	0	0	326
8	0	0	0	0	434
9	0	0	0	0	475
10	0	0	0	0	491
11	0	0	0	0	484
12	0	0	0	0	499
13	0	0	0	0	501
14	0	0	0	0	495
15	0	0	0	0	516
0	0	0	0	0	504
1	0	0	0	0	516
2	0	0	0	0	511
3	0	0	0	0	519
4	0	0	0	0	521
5	0	0	0	0	513
6	0	0	0	0	516
7	0	0	0	0	522
8	0	0	0	0	532
9	0	0	0	0	547
10	0	0	0	0	553
11	0	0	0	0	568
12	0	0	0	0	568
13	0	0	0	0	578
14	0	0	0	0	555
15	0	0	0	0	518
0	0	0	0	0	483
1	0	0	0	0	458
2	0	0	0	0	440
3	0	0	0	0	427
4	0	0	0	0	432
5	0	0	0	0	433
6	0	0	0	0	446
7	0	0	0	0	460
8	0	0	0	0	462
9	0	0	0	0	468
10	0	0	0	0	470
11	0	0	0	0	468
12	0	0	0	0	476
13	0	0	0	0	484
14	0	0	0	0	477
15	0	0	0	0	478
0	0	0	0	0	492
1	0	0	0	0	483
2	0	0	0	0	497
3	0	0	0	0	483
4	0	0	0	0	487
5	0	0	0	0	494
6	0	0	0	0	497
7	0	0	0	0	503
8	0	0	0	0	501
9	0	0	0	0	507
10	0	0	0	0	504
11	0	0	0	0	508
12	0	0	0	0	515
13	0	0	0	0	507
14	0	0	0	0	505
15	0	0	0	0	512
0	0	0	0	0	504
1	0	0	0	0	507
2	0	0	0	0	509
3	0	0	0	0	515
4	0	0	0	0	520
5	0	0	0	0	511
6	0	0	0	0	527
7	0	0	0	0	529
8	0	0	0	0	531
9	0	0	0	0	536
10	0	0	0	0	533
11	0	0	0	0	528
12	0	0	0	0	508
13	0	0	0	0	493
14	0	0	0	0	495
15	0	0	0	0	493
0	0	0	0	0	486
1	0	0	0	0	495
2	0	0	0	0	500
3	0	0	0	0	503
4	0	0	0	0	446
5	0	0	0	0	518
6	0	0	0	0	777
7	0	0	0	0	901
8	0	0	0	0	392
9	0	0	0	0	286
10	0	0	0	0	405
11	0	0	0	0	471
12	0	0	0	0	501
13	0	0	0	0	505
14	0	0	0	0	509
15	0	0	0	0	506
0	0	0	0	0	519
1	0	0	0	0	517
2	0	0	0	0	523
3	0	0	0	0	542
4	0	0	0	0	536
5	0	0	0	0	536
6	0	0	0	0	531
7	0	0	0	0	540
8	0	0	0	0	539
9	0	0	0	0	554
10	0	0	0	0	560
11	0	0	0	0	571
12	0	0	0	0	571
13	0	0	0	0	588
14	0	0	0	0	596
15	0	0	0	0	599
0	0	0	0	0	590
1	0	0	0	0	566
2	0	0	0	0	540
3	0	0	0	0	504
4	0	0	0	0	476
5	0	0	0	0	475
6	0	0	0	0	463
7	0	0	0	0	465
8	0	0	0	0	470
9	0	0	0	0	465
10	0	0	0	0	483
11	0	0	0	0	499
12	0	0	0	0	497
13	0	0	0	0	493
14	0	0	0	0	501
15	0	0	0	0	499
0	0	0	0	0	494
1	0	0	0	0	505
2	0	0	0	0	517
3	0	0	0	0	504
4	0	0	0	0	514
5	0	0	0	0	503
6	0	0	0	0	510
7	0	0	0	0	507
8	0	0	0	0	512
9	0	0	0	0	517
10	0	0	0	0	516
11	0	0	0	0	515
12	0	0	0	0	514
13	0	0	0	0	517
14	0	0	0	0	510
15	0	0	0	0	515
0	0	0	0	0	521
1	0	0	0	0	508
2	0	0	0	0	513
3	0	0	0	0	519
4	0	0	0	0	518
5	0	0	0	0	521
6	0	0	0	0	524
7	0	0	0	0	515
8	0	0	0	0	525
9	0	0	0	0	530
10	0	0	0	0	547
11	0	0	0	0	533
12	0	0	0	0	535
13	0	0	0	0	523
14	0	0	0	0	504
15	0	0	0	0	500
0	0	0	0	0	493
1	0	0	0	0	493
2	0	0	0	0	489
3	0	0	0	0	486
4	0	0	0	0	503
5	0	0	0	0	496
6	0	0	0	0	448
7	0	0	0	0	488
8	0	0	0	0	741
9	0	0	0	0	874
10	0	0	0	0	374
11	0	0	0	0	279
12	0	0	0	0	383
13	0	0	0	0	458
14	0	0	0	0	498
15	0	0	0	0	496
0	0	0	0	0	505
1	0	0	0	0	501
2	0	0	0	0	505
3	0	0	0	0	515
4	0	0	0	0	515
5	0	0	0	0	525
6	0	0	0	0	518
7	0	0	0	0	512
8	0	0	0	0	523
9	0	0	0	0	522
10	0	0	0	0	538
11	0	0	0	0	529
12	0	0	0	0	536
13	0	0	0	0	555
14	0	0	0	0	559
15	0	0	0	0	566
0	0	0	0	0	586
1	0	0	0	0	565
2	0	0	0	0	574
3	0	0	0	0	559
4	0	0	0	0	513
5	0	0	0	0	483
6	0	0	0	0	464
7	0	0	0	0	431
8	0	0	0	0	427
9	0	0	0	0	442
10	0	0	0	0	454
11	0	0	0	0	462
12	0	0	0	0	467
13	0	0	0	0	470
14	0	0	0	0	476
15	0	0	0	0	478
0	0	0	0	0	488
1	0	0	0	0	485
2	0	0	0	0	496
3	0	0	0	0	495
4	0	0	0	0	493
5	0	0	0	0	503
6	0	0	0	0	504
7	0	0	0	0	508
8	0	0	0	0	523
9	0	0	0	0	515
10	0	0	0	0	511
11	0	0	0	0	504
12	0	0	0	0	503
13	0	0	0	0	509
14	0	0	0	0	515
15	0	0	0	0	510
0	0	0	0	0	518
1	0	0	0	0	513
2	0	0	0	0	512
3	0	0	0	0	519
4	0	0	0	0	523
5	0	0	0	0	519
6	0	0	0	0	539
7	0	0	0	0	547
8	0	0	0	0	531
9	0	0	0	0	545
10	0	0	0	0	530
11	0	0	0	0	518
12	0	0	0	0	521
13	0	0	0	0	496
14	0	0	0	0	495
15	0	0	0	0	493
0	0	0	0	0	500
1	0	0	0	0	489
2	0	0	0	0	503
3	0	0	0	0	460
4	0	0	0	0	516
5	0	0	0	0	758
6	0	0	0	0	862
7	0	0	0	0	377
8	0	0	0	0	288
9	0	0	0	0	390
10	0	0	0	0	476
11	0	0	0	0	488
12	0	0	0	0	499
13	0	0	0	0	510
14	0	0	0	0	504
15	0	0	0	0	508
0	0	0	0	0	514
1	0	0	0	0	515
2	0	0	0	0	515
3	0	0	0	0	513
4	0	0	0	0	519
5	0	0	0	0	516
6	0	0	0	0	524
7	0	0	0	0	533
8	0	0	0	0	531
9	0	0	0	0	535
10	0	0	0	0	534
11	0	0	0	0	553
12	0	0	0	0	550
13	0	0	0	0	565
14	0	0	0	0	574
15	0	0	0	0	565
0	0	0	0	0	542
1	0	0	0	0	503
2	0	0	0	0	475
3	0	0	0	0	454
4	0	0	0	0	444
5	0	0	0	0	437
6	0	0	0	0	446
7	0	0	0	0	453
8	0	0	0	0	464
9	0	0	0	0	468
10	0	0	0	0	475
11	0	0	0	0	481
12	0	0	0	0	483
13	0	0	0	0	479
14	0	0	0	0	488
15	0	0	0	0	501
0	0	0	0	0	500
1	0	0	0	0	504
2	0	0	0	0	499
3	0	0	0	0	503
4	0	0	0	0	513
5	0	0	0	0	512
6	0	0	0	0	502
7	0	0	0	0	517
8	0	0	0	0	517
9	0	0	0	0	527
10	0	0	0	0	514
11	0	0	0	0	527
12	0	0	0	0	521
13	0	0	0	0	521
14	0	0	0	0	528
15	0	0	0	0	542
0	0	0	0	0	546
1	0	0	0	0	556
2	0	0	0	0	567
3	0	0	0	0	550
4	0	0	0	0	551
5	0	0	0	0	548
6	0	0	0	0	527
7	0	0	0	0	526
8	0	0	0	0	518
9	0	0	0	0	517
10	0	0	0	0	519
11	0	0	0	0	522
12	0	0	0	0	521
13	0	0	0	0	503
14	0	0	0	0	472
15	0	0	0	0	569
0	0	0	0	0	832
1	0	0	0	0	814
2	0	0	0	0	321
3	0	0	0	0	327
4	0	0	0	0	440
5	0	0	0	0	488
6	0	0	0	0	506
7	0	0	0	0	513
8	0	0	0	0	515
9	0	0	0	0	519
10	0	0	0	0	511
11	0	0	0	0	519
12	0	0	0	0	520
13	0	0	0	0	518
14	0	0	0	0	525
15	0	0	0	0	532
0	0	0	0	0	520
1	0	0	0	0	521
2	0	0	0	0	520
3	0	0	0	0	522
4	0	0	0	0	534
5	0	0	0	0	542
6	0	0	0	0	554
7	0	0	0	0	551
8	0	0	0	0	562
9	0	0	0	0	565
10	0	0	0	0	543
11	0	0	0	0	509
12	0	0	0	0	479
13	0	0	0	0	447
14	0	0	0	0	426
15	0	0	0	0	420
0	0	0	0	0	436
1	0	0	0	0	432
2	0	0	0	0	434
3	0	0	0	0	444
4	0	0	0	0	440
5	0	0	0	0	447
6	0	0	0	0	463
7	0	0	0	0	452
8	0	0	0	0	467
9	0	0	0	0	463
10	0	0	0	0	467
11	0	0	0	0	469
12	0	0	0	0	476
13	0	0	0	0	469
14	0	0	0	0	469
15	0	0	0	0	481
0	0	0	0	0	481
1	0	0	0	0	491
2	0	0	0	0	484
3	0	0	0	0	490
4	0	0	0	0	484
5	0	0	0	0	487
6	0	0	0	0	505
7	0	0	0	0	495
8	0	0	0	0	505
9	0	0	0	0	503
10	0	0	0	0	495
11	0	0	0	0	499
12	0	0	0	0	497
13	0	0	0	0	510
14	0	0	0	0	512
15	0	0	0	0	528
0	0	0	0	0	532
1	0	0	0	0	524
2	0	0	0	0	529
3	0	0	0	0	515
4	0	0	0	0	517
5	0	0	0	0	498
6	0	0	0	0	491
7	0	0	0	0	487
8	0	0	0	0	491
9	0	0	0	0	489
10	0	0	0	0	496
11	0	0	0	0	493
12	0	0	0	0	480
13	0	0	0	0	477
14	0	0	0	0	636
15	0	0	0	0	878
0	0	0	0	0	626
1	0	0	0	0	260
2	0	0	0	0	355
3	0	0	0	0	458
4	0	0	0	0	502
5	0	0	0	0	510
6	0	0	0	0	507
7	0	0	0	0	525
8	0	0	0	0	510
9	0	0	0	0	522
10	0	0	0	0	509
11	0	0	0	0	536
12	0	0	0	0	535
13	0	0	0	0	531
14	0	0	0	0	528
15	0	0	0	0	528
0	0	0	0	0	526
1	0	0	0	0	538
2	0	0	0	0	544
3	0	0	0	0	544
4	0	0	0	0	566
5	0	0	0	0	566
6	0	0	0	0	575
7	0	0	0	0	586
8	0	0	0	0	585
9	0	0	0	0	566
10	0	0	0	0	528
11	0	0	0	0	504
12	0	0	0	0	475
13	0	0	0	0	458
14	0	0	0	0	448
15	0	0	0	0	463
0	0	0	0	0	468
1	0	0	0	0	472
2	0	0	0	0	461
3	0	0	0	0	473
4	0	0	0	0	475
5	0	0	0	0	486
6	0	0	0	0	495
7	0	0	0	0	493
8	0	0	0	0	495
9	0	0	0	0	496
10	0	0	0	0	495
11	0	0	0	0	504
12	0	0	0	0	498
13	0	0	0	0	506
14	0	0	0	0	506
15	0	0	0	0	514
0	0	0	0	0	511
1	0	0	0	0	517
2	0	0	0	0	509
3	0	0	0	0	519
4	0	0	0	0	507
5	0	0	0	0	518
6	0	0	0	0	526
7	0	0	0	0	518
8	0	0	0	0	519
9	0	0	0	0	517
10	0	0	0	0	518
11	0	0	0	0	529
12	0	0	0	0	514
13	0	0	0	0	521
14	0	0	0	0	532
15	0	0	0	0	532
0	0	0	0	0	535
1	0	0	0	0	542
2	0	0	0	0	544
3	0	0	0	0	544
4	0	0	0	0	548
5	0	0	0	0	535
6	0	0	0	0	522
7	0	0	0	0	515
8	0	0	0	0	514
9	0	0	0	0	508
10	0	0	0	0	499
11	0	0	0	0	504
12	0	0	0	0	494
13	0	0	0	0	508
14	0	0	0	0	448
15	0	0	0	0	518
0	0	0	0	0	768
1	0	0	0	0	908
2	0	0	0	0	365
3	0	0	0	0	266
4	0	0	0	0	396
5	0	0	0	0	480
6	0	0	0	0	504
7	0	0	0	0	512
8	0	0	0	0	517
9	0	0	0	0	523
10	0	0	0	0	520
11	0	0	0	0	524
12	0	0	0	0	528
13	0	0	0	0	534
14	0	0	0	0	537
15	0	0	0	0	531
0	0	0	0	0	525
1	0	0	0	0	536
2	0	0	0	0	547
3	0	0	0	0	548
4	0	0	0	0	548
5	0	0	0	0	566
6	0	0	0	0	561
7	0	0	0	0	582
8	0	0	0	0	591
9	0	0	0	0	593
10	0	0	0	0	580
11	0	0	0	0	566
12	0	0	0	0	533
13	0	0	0	0	498
14	0	0	0	0	458
15	0	0	0	0	454
0	0	0	0	0	451
1	0	0	0	0	463
2	0	0	0	0	462
3	0	0	0	0	467
4	0	0	0	0	480
5	0	0	0	0	483
6	0	0	0	0	472
7	0	0	0	0	490
8	0	0	0	0	488
9	0	0	0	0	500
10	0	0	0	0	501
11	0	0	0	0	515
12	0	0	0	0	502
13	0	0	0	0	506
14	0	0	0	0	510
15	0	0	0	0	517
0	0	0	0	0	519
1	0	0	0	0	517
2	0	0	0	0	521
3	0	0	0	0	521
4	0	0	0	0	523
5	0	0	0	0	521
6	0	0	0	0	524
7	0	0	0	0	535
8	0	0	0	0	528
9	0	0	0	0	523
10	0	0	0	0	528
11	0	0	0	0	529
12	0	0	0	0	520
13	0	0	0	0	525
14	0	0	0	0	519
15	0	0	0	0	519
0	0	0	0	0	524
1	0	0	0	0	529
2	0	0	0	0	526
3	0	0	0	0	533
4	0	0	0	0	527
5	0	0	0	0	539
6	0	0	0	0	554
7	0	0	0	0	539
8	0	0	0	0	553
9	0	0	0	0	543
10	0	0	0	0	514
11	0	0	0	0	500
12	0	0	0	0	498
13	0	0	0	0	493
14	0	0	0	0	505
15	0	0	0	0	504
0	0	0	0	0	504
1	0	0	0	0	507
2	0	0	0	0	464
3	0	0	0	0	506
4	0	0	0	0	746
5	0	0	0	0	908
6	0	0	0	0	396
7	0	0	0	0	255
8	0	0	0	0	379
9	0	0	0	0	481
10	0	0	0	0	499
11	0	0	0	0	499
12	0	0	0	0	509
13	0	0	0	0	510
14	0	0	0	0	517
15	0	0	0	0	515
0	0	0	0	0	521
1	0	0	0	0	522
2	0	0	0	0	523
3	0	0	0	0	524
4	0	0	0	0	518
5	0	0	0	0	521
6	0	0	0	0	530
7	0	0	0	0	538
8	0	0	0	0	545
9	0	0	0	0	545
10	0	0	0	0	560
11	0	0	0	0	560
12	0	0	0	0	572
13	0	0	0	0	576
14	0	0	0	0	569
15	0	0	0	0	560
0	0	0	0	0	525
1	0	0	0	0	490
2	0	0	0	0	455
3	0	0	0	0	439
4	0	0	0	0	437
5	0	0	0	0	444
6	0	0	0	0	453
7	0	0	0	0	448
8	0	0	0	0	461
9	0	0	0	0	467
10	0	0	0	0	474
11	0	0	0	0	472
12	0	0	0	0	470
13	0	0	0	0	490
14	0	0	0	0	487
15	0	0	0	0	489
0	0	0	0	0	499
1	0	0	0	0	506
2	0	0	0	0	489
3	0	0	0	0	497
4	0	0	0	0	490
5	0	0	0	0	506
6	0	0	0	0	508
7	0	0	0	0	502
8	0	0	0	0	513
9	0	0	0	0	509
10	0	0	0	0	508
11	0	0	0	0	507
12	0	0	0	0	512
13	0	0	0	0	507
14	0	0	0	0	513
15	0	0	0	0	520
0	0	0	0	0	517
1	0	0	0	0	510
2	0	0	0	0	506
3	0	0	0	0	511
4	0	0	0	0	509
5	0	0	0	0	518
6	0	0	0	0	522
7	0	0	0	0	526
8	0	0	0	0	535
9	0	0	0	0	527
10	0	0	0	0	543
11	0	0	0	0	526
12	0	0	0	0	538
13	0	0	0	0	528
14	0	0	0	0	513
15	0	0	0	0	494
0	0	0	0	0	500
1	0	0	0	0	491
2	0	0	0	0	494
3	0	0	0	0	489
4	0	0	0	0	494
5	0	0	0	0	496
6	0	0	0	0	453
7	0	0	0	0	552
8	0	0	0	0	841
9	0	0	0	0	848
10	0	0	0	0	290
11	0	0	0	0	263
12	0	0	0	0	393
13	0	0	0	0	474
14	0	0	0	0	490
15	0	0	0	0	511
0	0	0	0	0	518
1	0	0	0	0	509
2	0	0	0	0	517
3	0	0	0	0	518
4	0	0	0	0	522
5	0	0	0	0	525
6	0	0	0	0	518
7	0	0	0	0	533
8	0	0	0	0	526
9	0	0	0	0	538
10	0	0	0	0	535
11	0	0	0	0	543
12	0	0	0	0	542
13	0	0	0	0	556
14	0	0	0	0	568
15	0	0	0	0	582
0	0	0	0	0	583
1	0	0	0	0	582
2	0	0	0	0	578
3	0	0	0	0	547
4	0	0	0	0	523
5	0	0	0	0	480
6	0	0	0	0	456
7	0	0	0	0	443
8	0	0	0	0	434
9	0	0	0	0	448
10	0	0	0	0	447
11	0	0	0	0	460
12	0	0	0	0	459
13	0	0	0	0	469
14	0	0	0	0	472
15	0	0	0	0	481
0	0	0	0	0	487
1	0	0	0	0	480
2	0	0	0	0	501
3	0	0	0	0	487
4	0	0	0	0	502
5	0	0	0	0	491
6	0	0	0	0	505
7	0	0	0	0	515
8	0	0	0	0	511
9	0	0	0	0	504
10	0	0	0	0	512
11	0	0	0	0	509
12	0	0	0	0	511
13	0	0	0	0	512
14	0	0	0	0	518
15	0	0	0	0	525
0	0	0	0	0	523
1	0	0	0	0	512
2	0	0	0	0	520
3	0	0	0	0	519
4	0	0	0	0	521
5	0	0	0	0	525
6	0	0	0	0	543
7	0	0	0	0	542
8	0	0	0	0	549
9	0	0	0	0	539
10	0	0	0	0	519
11	0	0	0	0	508
12	0	0	0	0	499
13	0	0	0	0	500
14	0	0	0	0	496
15	0	0	0	0	505
0	0	0	0	0	494
1	0	0	0	0	509
2	0	0	0	0	479
3	0	0	0	0	465
4	0	0	0	0	641
5	0	0	0	0	907
6	0	0	0	0	531
7	0	0	0	0	251
8	0	0	0	0	331
9	0	0	0	0	458
10	0	0	0	0	492
11	0	0	0	0	513
12	0	0	0	0	520
13	0	0	0	0	519
14	0	0	0	0	535
15	0	0	0	0	522
0	0	0	0	0	524
1	0	0	0	0	532
2	0	0	0	0	527
3	0	0	0	0	531
4	0	0	0	0	527
5	0	0	0	0	525
6	0	0	0	0	539
7	0	0	0	0	547
8	0	0	0	0	549
9	0	0	0	0	574
10	0	0	0	0	569
11	0	0	0	0	573
12	0	0	0	0	581
13	0	0	0	0	595
14	0	0	0	0	588
15	0	0	0	0	579
0	0	0	0	0	535
1	0	0	0	0	491
2	0	0	0	0	455
3	0	0	0	0	441
4	0	0	0	0	454
5	0	0	0	0	448
6	0	0	0	0	451
7	0	0	0	0	467
8	0	0	0	0	470
9	0	0	0	0	463
10	0	0	0	0	465
11	0	0	0	0	467
12	0	0	0	0	484
13	0	0	0	0	492
14	0	0	0	0	491
15	0	0	0	0	476
0	0	0	0	0	499
1	0	0	0	0	499
2	0	0	0	0	491
3	0	0	0	0	505
4	0	0	0	0	513
5	0	0	0	0	492
6	0	0	0	0	496
7	0	0	0	0	513
8	0	0	0	0	506
9	0	0	0	0	512
10	0	0	0	0	511
11	0	0	0	0	500
12	0	0	0	0	508
13	0	0	0	0	518
14	0	0	0	0	513
15	0	0	0	0	519
0	0	0	0	0	538
1	0	0	0	0	539
2	0	0	0	0	530
3	0	0	0	0	538
4	0	0	0	0	512
5	0	0	0	0	499
6	0	0	0	0	504
7	0	0	0	0	498
8	0	0	0	0	505
9	0	0	0	0	488
10	0	0	0	0	495
11	0	0	0	0	494
12	0	0	0	0	457
13	0	0	0	0	480
14	0	0	0	0	719
15	0	0	0	0	880
0	0	0	0	0	417
1	0	0	0	0	269
2	0	0	0	0	373
3	0	0	0	0	472
4	0	0	0	0	502
5	0	0	0	0	505
6	0	0	0	0	513
7	0	0	0	0	524
8	0	0	0	0	519
9	0	0	0	0	516
10	0	0	0	0	522
11	0	0	0	0	524
12	0	0	0	0	529
13	0	0	0	0	530
14	0	0	0	0	531
15	0	0	0	0	529
0	0	0	0	0	532
1	0	0	0	0	539
2	0	0	0	0	543
3	0	0	0	0	559
4	0	0	0	0	565
5	0	0	0	0	562
6	0	0	0	0	572
7	0	0	0	0	582
8	0	0	0	0	582
9	0	0	0	0	547
10	0	0	0	0	507
11	0	0	0	0	488
12	0	0	0	0	456
13	0	0	0	0	438
14	0	0	0	0	445
15	0	0	0	0	462
0	0	0	0	0	460
1	0	0	0	0	457
2	0	0	0	0	463
3	0	0	0	0	468
4	0	0	0	0	477
5	0	0	0	0	480
6	0	0	0	0	487
7	0	0	0	0	490
8	0	0	0	0	487
9	0	0	0	0	495
10	0	0	0	0	490
11	0	0	0	0	498
12	0	0	0	0	503
13	0	0	0	0	501
14	0	0	0	0	509
15	0	0	0	0	510
0	0	0	0	0	507
1	0	0	0	0	510
2	0	0	0	0	515
3	0	0	0	0	511
4	0	0	0	0	517
5	0	0	0	0	518
6	0	0	0	0	527
7	0	0	0	0	524
8	0	0	0	0	537
9	0	0	0	0	550
10	0	0	0	0	547
11	0	0	0	0	540
12	0	0	0	0	534
13	0	0	0	0	515
14	0	0	0	0	500
15	0	0	0	0	499
0	0	0	0	0	505
1	0	0	0	0	511
2	0	0	0	0	521
3	0	0	0	0	515
4	0	0	0	0	475
5	0	0	0	0	472
6	0	0	0	0	654
7	0	0	0	0	901
8	0	0	0	0	625
9	0	0	0	0	288
10	0	0	0	0	359
11	0	0	0	0	478
12	0	0	0	0	507
13	0	0	0	0	508
14	0	0	0	0	529
15	0	0	0	0	529
0	0	0	0	0	526
1	0	0	0	0	535
2	0	0	0	0	540
3	0	0	0	0	542
4	0	0	0	0	543
5	0	0	0	0	542
6	0	0	0	0	546
7	0	0	0	0	550
8	0	0	0	0	557
9	0	0	0	0	560
10	0	0	0	0	562
11	0	0	0	0	571
12	0	0	0	0	579
13	0	0	0	0	594
14	0	0	0	0	601
15	0	0	0	0	605
0	0	0	0	0	597
1	0	0	0	0	590
2	0	0	0	0	551
3	0	0	0	0	507
4	0	0	0	0	489
5	0	0	0	0	473
6	0	0	0	0	470
7	0	0	0	0	478
8	0	0	0	0	474
9	0	0	0	0	480
10	0	0	0	0	490
11	0	0	0	0	491
12	0	0	0	0	492
13	0	0	0	0	495
14	0	0	0	0	491
15	0	0	0	0	496
0	0	0	0	0	497
1	0	0	0	0	503
2	0	0	0	0	504
3	0	0	0	0	492
4	0	0	0	0	508
5	0	0	0	0	512
6	0	0	0	0	501
7	0	0	0	0	496
8	0	0	0	0	508
9	0	0	0	0	507
10	0	0	0	0	506
11	0	0	0	0	503
12	0	0	0	0	502
13	0	0	0	0	500
14	0	0	0	0	510
15	0	0	0	0	495
0	0	0	0	0	496
1	0	0	0	0	495
2	0	0	0	0	508
3	0	0	0	0	509
4	0	0	0	0	512
5	0	0	0	0	515
6	0	0	0	0	515
7	0	0	0	0	525
8	0	0	0	0	515
9	0	0	0	0	481
10	0	0	0	0	467
11	0	0	0	0	477
12	0	0	0	0	470
13	0	0	0	0	470
14	0	0	0	0	475
15	0	0	0	0	480
0	0	0	0	0	476
1	0	0	0	0	425
2	0	0	0	0	468
3	0	0	0	0	688
4	0	0	0	0	876
5	0	0	0	0	432
6	0	0	0	0	242
7	0	0	0	0	356
8	0	0	0	0	433
9	0	0	0	0	456
10	0	0	0	0	471
11	0	0	0	0	482
12	0	0	0	0	480
13	0	0	0	0	481
14	0	0	0	0	489
15	0	0	0	0	496
0	0	0	0	0	496
1	0	0	0	0	495
2	0	0	0	0	499
3	0	0	0	0	503
4	0	0	0	0	502
5	0	0	0	0	505
6	0	0	0	0	508
7	0	0	0	0	523
8	0	0	0	0	529
9	0	0	0	0	545
10	0	0	0	0	539
11	0	0	0	0	560
12	0	0	0	0	561
13	0	0	0	0	559
14	0	0	0	0	536
15	0	0	0	0	499
0	0	0	0	0	470
1	0	0	0	0	452
2	0	0	0	0	431
3	0	0	0	0	434
4	0	0	0	0	435
5	0	0	0	0	435
6	0	0	0	0	444
7	0	0	0	0	454
8	0	0	0	0	470
9	0	0	0	0	466
10	0	0	0	0	468
11	0	0	0	0	474
12	0	0	0	0	468
13	0	0	0	0	487
14	0	0	0	0	485
15	0	0	0	0	487
0	0	0	0	0	487
1	0	0	0	0	494
2	0	0	0	0	497
3	0	0	0	0	494
4	0	0	0	0	498
5	0	0	0	0	504
6	0	0	0	0	497
7	0	0	0	0	511
8	0	0	0	0	509
9	0	0	0	0	505
10	0	0	0	0	507
11	0	0	0	0	510
12	0	0	0	0	519
13	0	0	0	0	514
14	0	0	0	0	505
15	0	0	0	0	512
0	0	0	0	0	522
1	0	0	0	0	514
2	0	0	0	0	520
3	0	0	0	0	521
4	0	0	0	0	524
5	0	0	0	0	518
6	0	0	0	0	526
7	0	0	0	0	533
8	0	0	0	0	544
9	0	0	0	0	545
10	0	0	0	0	533
11	0	0	0	0	532
12	0	0	0	0	514
13	0	0	0	0	492
14	0	0	0	0	502
15	0	0	0	0	496
0	0	0	0	0	493
1	0	0	0	0	499
2	0	0	0	0	499
3	0	0	0	0	499
4	0	0	0	0	467
5	0	0	0	0	571
6	0	0	0	0	858
7	0	0	0	0	798
8	0	0	0	0	288
9	0	0	0	0	314
10	0	0	0	0	436
11	0	0	0	0	492
12	0	0	0	0	503
13	0	0	0	0	507
14	0	0	0	0	519
15	0	0	0	0	519
0	0	0	0	0	520
1	0	0	0	0	523
2	0	0	0	0	529
3	0	0	0	0	543
4	0	0	0	0	524
5	0	0	0	0	527
6	0	0	0	0	535
7	0	0	0	0	544
8	0	0	0	0	542
9	0	0	0	0	548
10	0	0	0	0	554
11	0	0	0	0	565
12	0	0	0	0	559
13	0	0	0	0	579
14	0	0	0	0	595
15	0	0	0	0	595
0	0	0	0	0	578
1	0	0	0	0	559
2	0	0	0	0	524
3	0	0	0	0	493
4	0	0	0	0	457
5	0	0	0	0	456
6	0	0	0	0	455
7	0	0	0	0	471
8	0	0	0	0	464
9	0	0	0	0	474
10	0	0	0	0	475
11	0	0	0	0	484
12	0	0	0	0	492
13	0	0	0	0	488
14	0	0	0	0	488
15	0	0	0	0	508
0	0	0	0	0	514
1	0	0	0	0	503
2	0	0	0	0	502
3	0	0	0	0	504
4	0	0	0	0	504
5	0	0	0	0	512
6	0	0	0	0	512
7	0	0	0	0	519
8	0	0	0	0	518
9	0	0	0	0	521
10	0	0	0	0	513
11	0	0	0	0	512
12	0	0	0	0	522
13	0	0	0	0	524
14	0	0	0	0	514
15	0	0	0	0	534
0	0	0	0	0	529
1	0	0	0	0	519
2	0	0	0	0	521
3	0	0	0	0	510
4	0	0	0	0	507
5	0	0	0	0	517
6	0	0	0	0	526
7	0	0	0	0	536
8	0	0	0	0	527
9	0	0	0	0	519
10	0	0	0	0	514
11	0	0	0	0	513
12	0	0	0	0	516
13	0	0	0	0	521
14	0	0	0	0	527
15	0	0	0	0	519
0	0	0	0	0	541
1	0	0	0	0	553
2	0	0	0	0	542
3	0	0	0	0	543
4	0	0	0	0	541
5	0	0	0	0	524
6	0	0	0	0	528
7	0	0	0	0	498
8	0	0	0	0	506
9	0	0	0	0	496
10	0	0	0	0	501
11	0	0	0	0	494
12	0	0	0	0	504
13	0	0	0	0	510
14	0	0	0	0	462
15	0	0	0	0	536
0	0	0	0	0	804
1	0	0	0	0	887
2	0	0	0	0	328
3	0	0	0	0	276
4	0	0	0	0	402
5	0	0	0	0	477
6	0	0	0	0	494
7	0	0	0	0	504
8	0	0	0	0	510
9	0	0	0	0	516
10	0	0	0	0	508
11	0	0	0	0	519
12	0	0	0	0	522
13	0	0	0	0	519
14	0	0	0	0	531
15	0	0	0	0	525
0	0	0	0	0	542
1	0	0	0	0	528
2	0	0	0	0	528
3	0	0	0	0	532
4	0	0	0	0	553
5	0	0	0	0	546
6	0	0	0	0	557
7	0	0	0	0	579
8	0	0	0	0	578
9	0	0	0	0	584
10	0	0	0	0	576
11	0	0	0	0	564
12	0	0	0	0	534
13	0	0	0	0	495
14	0	0	0	0	470
15	0	0	0	0	448
0	0	0	0	0	448
1	0	0	0	0	440
2	0	0	0	0	451
3	0	0	0	0	447
4	0	0	0	0	466
5	0	0	0	0	472
6	0	0	0	0	473
7	0	0	0	0	489
8	0	0	0	0	472
9	0	0	0	0	492
10	0	0	0	0	485
11	0	0	0	0	487
12	0	0	0	0	489
13	0	0	0	0	497
14	0	0	0	0	506
15	0	0	0	0	495
0	0	0	0	0	505
1	0	0	0	0	505
2	0	0	0	0	507
3	0	0	0	0	503
4	0	0	0	0	507
5	0	0	0	0	525
6	0	0	0	0	506
7	0	0	0	0	516
8	0	0	0	0	512
9	0	0	0	0	512
10	0	0	0	0	515
11	0	0	0	0	513
12	0	0	0	0	511
13	0	0	0	0	514
14	0	0	0	0	518
15	0	0	0	0	519
0	0	0	0	0	509
1	0	0	0	0	516
2	0	0	0	0	515
3	0	0	0	0	521
4	0	0	0	0	537
5	0	0	0	0	535
6	0	0	0	0	548
7	0	0	0	0	534
8	0	0	0	0	530
9	0	0	0	0	535
10	0	0	0	0	507
11	0	0	0	0	486
12	0	0	0	0	493
13	0	0	0	0	492
14	0	0	0	0	485
15	0	0	0	0	492
0	0	0	0	0	497
1	0	0	0	0	491
2	0	0	0	0	459
3	0	0	0	0	573
4	0	0	0	0	889
5	0	0	0	0	711
6	0	0	0	0	278
7	0	0	0	0	288
8	0	0	0	0	425
9	0	0	0	0	483
10	0	0	0	0	500
11	0	0	0	0	518
12	0	0	0	0	511
13	0	0	0	0	522
14	0	0	0	0	517
15	0	0	0	0	519
0	0	0	0	0	522
1	0	0	0	0	525
2	0	0	0	0	535
3	0	0	0	0	530
4	0	0	0	0	531
5	0	0	0	0	534
6	0	0	0	0	530
7	0	0	0	0	543
8	0	0	0	0	558
9	0	0	0	0	556
10	0	0	0	0	572
11	0	0	0	0	593
12	0	0	0	0	577
13	0	0	0	0	577
14	0	0	0	0	578
15	0	0	0	0	552
0	0	0	0	0	503
1	0	0	0	0	475
2	0	0	0	0	456
3	0	0	0	0	428
4	0	0	0	0	440
5	0	0	0	0	442
6	0	0	0	0	435
7	0	0	0	0	456
8	0	0	0	0	463
9	0	0	0	0	464
10	0	0	0	0	490
11	0	0	0	0	471
12	0	0	0	0	482
13	0	0	0	0	482
14	0	0	0	0	496
15	0	0	0	0	485
0	0	0	0	0	492
1	0	0	0	0	508
2	0	0	0	0	503
3	0	0	0	0	500
4	0	0	0	0	501
5	0	0	0	0	507
6	0	0	0	0	519
7	0	0	0	0	513
8	0	0	0	0	515
9	0	0	0	0	507
10	0	0	0	0	505
11	0	0	0	0	511
12	0	0	0	0	521
13	0	0	0	0	522
14	0	0	0	0	512
15	0	0	0	0	516
0	0	0	0	0	517
1	0	0	0	0	520
2	0	0	0	0	523
3	0	0	0	0	526
4	0	0	0	0	536
5	0	0	0	0	534
6	0	0	0	0	553
7	0	0	0	0	543
8	0	0	0	0	544
9	0	0	0	0	539
10	0	0	0	0	529
11	0	0	0	0	508
12	0	0	0	0	497
13	0	0	0	0	501
14	0	0	0	0	501
15	0	0	0	0	511
0	0	0	0	0	507
1	0	0	0	0	509
2	0	0	0	0	462
3	0	0	0	0	505
4	0	0	0	0	778
5	0	0	0	0	949
6	0	0	0	0	431
7	0	0	0	0	268
8	0	0	0	0	376
9	0	0	0	0	469
10	0	0	0	0	497
11	0	0	0	0	517
12	0	0	0	0	515
13	0	0	0	0	525
14	0	0	0	0	529
15	0	0	0	0	532
0	0	0	0	0	522
1	0	0	0	0	534
2	0	0	0	0	538
3	0	0	0	0	546
4	0	0	0	0	542
5	0	0	0	0	547
6	0	0	0	0	559
7	0	0	0	0	547
8	0	0	0	0	554
9	0	0	0	0	575
10	0	0	0	0	576
11	0	0	0	0	578
12	0	0	0	0	587
13	0	0	0	0	602
14	0	0	0	0	600
15	0	0	0	0	572
0	0	0	0	0	529
1	0	0	0	0	497
2	0	0	0	0	461
3	0	0	0	0	446
4	0	0	0	0	444
5	0	0	0	0	442
6	0	0	0	0	460
7	0	0	0	0	458
8	0	0	0	0	452
9	0	0	0	0	470
10	0	0	0	0	464
11	0	0	0	0	476
12	0	0	0	0	481
13	0	0	0	0	486
14	0	0	0	0	479
15	0	0	0	0	495
0	0	0	0	0	490
1	0	0	0	0	483
2	0	0	0	0	487
3	0	0	0	0	489
4	0	0	0	0	486
5	0	0	0	0	492
6	0	0	0	0	492
7	0	0	0	0	491
8	0	0	0	0	490
9	0	0	0	0	492
10	0	0	0	0	505
11	0	0	0	0	494
12	0	0	0	0	486
13	0	0	0	0	483
14	0	0	0	0	495
15	0	0	0	0	502
0	0	0	0	0	507
1	0	0	0	0	505
2	0	0	0	0	511
3	0	0	0	0	524
4	0	0	0	0	519
5	0	0	0	0	522
6	0	0	0	0	511
7	0	0	0	0	499
8	0	0	0	0	488
9	0	0	0	0	479
10	0	0	0	0	476
11	0	0	0	0	484
12	0	0	0	0	469
13	0	0	0	0	476
14	0	0	0	0	478
15	0	0	0	0	461
0	0	0	0	0	455
1	0	0	0	0	622
2	0	0	0	0	926
3	0	0	0	0	593
4	0	0	0	0	242
5	0	0	0	0	313
6	0	0	0	0	432
7	0	0	0	0	466
8	0	0	0	0	478
9	0	0	0	0	487
10	0	0	0	0	494
11	0	0	0	0	499
12	0	0	0	0	497
13	0	0	0	0	508
14	0	0	0	0	518
15	0	0	0	0	509
0	0	0	0	0	511
1	0	0	0	0	510
2	0	0	0	0	518
3	0	0	0	0	525
4	0	0	0	0	527
5	0	0	0	0	529
6	0	0	0	0	536
7	0	0	0	0	553
8	0	0	0	0	554
9	0	0	0	0	565
10	0	0	0	0	577
11	0	0	0	0	583
12	0	0	0	0	574
13	0	0	0	0	528
14	0	0	0	0	485
15	0	0	0	0	462
0	0	0	0	0	437
1	0	0	0	0	426
2	0	0	0	0	436
3	0	0	0	0	434
4	0	0	0	0	451
5	0	0	0	0	452
6	0	0	0	0	458
7	0	0	0	0	466
8	0	0	0	0	488
9	0	0	0	0	471
10	0	0	0	0	477
11	0	0	0	0	496
12	0	0	0	0	477
13	0	0	0	0	489
14	0	0	0	0	499
15	0	0	0	0	504
0	0	0	0	0	505
1	0	0	0	0	502
2	0	0	0	0	500
3	0	0	0	0	512
4	0	0	0	0	503
5	0	0	0	0	510
6	0	0	0	0	514
7	0	0	0	0	505
8	0	0	0	0	513
9	0	0	0	0	524
10	0	0	0	0	513
11	0	0	0	0	529
12	0	0	0	0	521
13	0	0	0	0	534
14	0	0	0	0	532
15	0	0	0	0	560
0	0	0	0	0	553
1	0	0	0	0	536
2	0	0	0	0	544
3	0	0	0	0	523
4	0	0	0	0	507
5	0	0	0	0	500
6	0	0	0	0	504
7	0	0	0	0	494
8	0	0	0	0	499
9	0	0	0	0	505
10	0	0	0	0	508
11	0	0	0	0	458
12	0	0	0	0	479
13	0	0	0	0	701
14	0	0	0	0	958
15	0	0	0	0	525
0	0	0	0	0	259
1	0	0	0	0	358
2	0	0	0	0	460
3	0	0	0	0	497
4	0	0	0	0	504
5	0	0	0	0	511
6	0	0	0	0	514
7	0	0	0	0	514
8	0	0	0	0	526
9	0	0	0	0	524
10	0	0	0	0	520
11	0	0	0	0	534
12	0	0	0	0	535
13	0	0	0	0	523
14	0	0	0	0	527
15	0	0	0	0	559
0	0	0	0	0	546
1	0	0	0	0	555
2	0	0	0	0	557
3	0	0	0	0	576
4	0	0	0	0	581
5	0	0	0	0	595
6	0	0	0	0	598
7	0	0	0	0	594
8	0	0	0	0	572
9	0	0	0	0	545
10	0	0	0	0	504
11	0	0	0	0	473
12	0	0	0	0	460
13	0	0	0	0	451
14	0	0	0	0	452
15	0	0	0	0	453
0	0	0	0	0	469
1	0	0	0	0	468
2	0	0	0	0	475
3	0	0	0	0	486
4	0	0	0	0	482
5	0	0	0	0	479
6	0	0	0	0	481
7	0	0	0	0	507
8	0	0	0	0	508
9	0	0	0	0	499
10	0	0	0	0	495
11	0	0	0	0	498
12	0	0	0	0	512
13	0	0	0	0	502
14	0	0	0	0	513
15	0	0	0	0	509
0	0	0	0	0	512
1	0	0	0	0	514
2	0	0	0	0	518
3	0	0	0	0	513
4	0	0	0	0	528
5	0	0	0	0	519
6	0	0	0	0	515
7	0	0	0	0	520
8	0	0	0	0	531
9	0	0	0	0	527
10	0	0	0	0	542
11	0	0	0	0	551
12	0	0	0	0	556
13	0	0	0	0	548
14	0	0	0	0	545
15	0	0	0	0	520
0	0	0	0	0	510
1	0	0	0	0	508
2	0	0	0	0	495
3	0	0	0	0	493
4	0	0	0	0	506
5	0	0	0	0	513
6	0	0	0	0	496
7	0	0	0	0	463
8	0	0	0	0	499
9	0	0	0	0	736
10	0	0	0	0	931
11	0	0	0	0	426
12	0	0	0	0	289
13	0	0	0	0	374
14	0	0	0	0	475
15	0	0	0	0	494
0	0	0	0	0	497
1	0	0	0	0	511
2	0	0	0	0	513
3	0	0	0	0	502
4	0	0	0	0	527
5	0	0	0	0	523
6	0	0	0	0	520
7	0	0	0	0	532
8	0	0	0	0	523
9	0	0	0	0	530
10	0	0	0	0	539
11	0	0	0	0	533
12	0	0	0	0	531
13	0	0	0	0	547
14	0	0	0	0	566
15	0	0	0	0	565
0	0	0	0	0	573
1	0	0	0	0	587
2	0	0	0	0	585
3	0	0	0	0	581
4	0	0	0	0	561
5	0	0	0	0	537
6	0	0	0	0	476
7	0	0	0	0	457
8	0	0	0	0	452
9	0	0	0	0	439
10	0	0	0	0	447
11	0	0	0	0	454
12	0	0	0	0	456
13	0	0	0	0	460
14	0	0	0	0	460
15	0	0	0	0	477
0	0	0	0	0	476
1	0	0	0	0	487
2	0	0	0	0	483
3	0	0	0	0	491
4	0	0	0	0	497
5	0	0	0	0	480
6	0	0	0	0	503
7	0	0	0	0	503
8	0	0	0	0	499
9	0	0	0	0	510
10	0	0	0	0	503
11	0	0	0	0	519
12	0	0	0	0	504
13	0	0	0	0	507
14	0	0	0	0	518
15	0	0	0	0	508
0	0	0	0	0	519
1	0	0	0	0	525
2	0	0	0	0	520
3	0	0	0	0	541
4	0	0	0	0	548
5	0	0	0	0	540
6	0	0	0	0	545
7	0	0	0	0	535
8	0	0	0	0	511
9	0	0	0	0	498
10	0	0	0	0	495
11	0	0	0	0	503
12	0	0	0	0	488
13	0	0	0	0	489
14	0	0	0	0	500
15	0	0	0	0	512
0	0	0	0	0	451
1	0	0	0	0	492
2	0	0	0	0	750
3	0	0	0	0	925
4	0	0	0	0	427
5	0	0	0	0	291
6	0	0	0	0	385
7	0	0	0	0	476
8	0	0	0	0	498
9	0	0	0	0	491
10	0	0	0	0	492
11	0	0	0	0	518
12	0	0	0	0	503
13	0	0	0	0	515
14	0	0	0	0	509
15	0	0	0	0	536
0	0	0	0	0	516
1	0	0	0	0	528
2	0	0	0	0	525
3	0	0	0	0	532
4	0	0	0	0	531
5	0	0	0	0	535
6	0	0	0	0	545
7	0	0	0	0	559
8	0	0	0	0	567
9	0	0	0	0	577
10	0	0	0	0	578
11	0	0	0	0	586
12	0	0	0	0	576
13	0	0	0	0	538
14	0	0	0	0	526
15	0	0	0	0	475
0	0	0	0	0	451
1	0	0	0	0	444
2	0	0	0	0	438
3	0	0	0	0	448
4	0	0	0	0	448
5	0	0	0	0	467
6	0	0	0	0	466
7	0	0	0	0	474
8	0	0	0	0	483
9	0	0	0	0	482
10	0	0	0	0	480
11	0	0	0	0	484
12	0	0	0	0	490
13	0	0	0	0	502
14	0	0	0	0	500
15	0	0	0	0	497
0	0	0	0	0	497
1	0	0	0	0	513
2	0	0	0	0	495
3	0	0	0	0	519
4	0	0	0	0	499
5	0	0	0	0	512
6	0	0	0	0	509
7	0	0	0	0	518
8	0	0	0	0	511
9	0	0	0	0	525
10	0	0	0	0	512
11	0	0	0	0	542
12	0	0	0	0	526
13	0	0	0	0	534
14	0	0	0	0	543
15	0	0	0	0	547
0	0	0	0	0	529
1	0	0	0	0	519
2	0	0	0	0	496
3	0	0	0	0	500
4	0	0	0	0	492
5	0	0	0	0	500
6	0	0	0	0	496
7	0	0	0	0	504
8	0	0	0	0	518
9	0	0	0	0	455
10	0	0	0	0	531
11	0	0	0	0	824
12	0	0	0	0	859
13	0	0	0	0	328
14	0	0	0	0	310
15	0	0	0	0	416
0	0	0	0	0	478
1	0	0	0	0	501
2	0	0	0	0	496
3	0	0	0	0	512
4	0	0	0	0	513
5	0	0	0	0	513
6	0	0	0	0	515
7	0	0	0	0	523
8	0	0	0	0	524
9	0	0	0	0	528
10	0	0	0	0	529
11	0	0	0	0	519
12	0	0	0	0	529
13	0	0	0	0	532
14	0	0	0	0	541
15	0	0	0	0	560
0	0	0	0	0	561
1	0	0	0	0	563
2	0	0	0	0	576
3	0	0	0	0	574
4	0	0	0	0	583
5	0	0	0	0	573
6	0	0	0	0	561
7	0	0	0	0	494
8	0	0	0	0	470
9	0	0	0	0	453
10	0	0	0	0	433
11	0	0	0	0	437
12	0	0	0	0	454
13	0	0	0	0	456
14	0	0	0	0	460
15	0	0	0	0	467
0	0	0	0	0	473
1	0	0	0	0	480
2	0	0	0	0	478
3	0	0	0	0	490
4	0	0	0	0	490
5	0	0	0	0	496
6	0	0	0	0	495
7	0	0	0	0	499
8	0	0	0	0	489
9	0	0	0	0	506
10	0	0	0	0	508
11	0	0	0	0	503
12	0	0	0	0	506
13	0	0	0	0	512
14	0	0	0	0	507
15	0	0	0	0	511
0	0	0	0	0	522
1	0	0	0	0	511
2	0	0	0	0	508
3	0	0	0	0	508
4	0	0	0	0	521
5	0	0	0	0	516
6	0	0	0	0	527
7	0	0	0	0	527
8	0	0	0	0	538
9	0	0	0	0	549
10	0	0	0	0	542
11	0	0	0	0	540
12	0	0	0	0	527
13	0	0	0	0	505
14	0	0	0	0	494
15	0	0	0	0	497
0	0	0	0	0	490
1	0	0	0	0	500
2	0	0	0	0	502
3	0	0	0	0	495
4	0	0	0	0	483
5	0	0	0	0	457
6	0	0	0	0	609
7	0	0	0	0	901
8	0	0	0	0	698
9	0	0	0	0	271
10	0	0	0	0	321
11	0	0	0	0	449
12	0	0	0	0	482
13	0	0	0	0	491
14	0	0	0	0	496
15	0	0	0	0	521
0	0	0	0	0	504
1	0	0	0	0	512
2	0	0	0	0	524
3	0	0	0	0	518
4	0	0	0	0	521
5	0	0	0	0	518
6	0	0	0	0	523
7	0	0	0	0	520
8	0	0	0	0	531
9	0	0	0	0	535
10	0	0	0	0	540
11	0	0	0	0	551
12	0	0	0	0	546
13	0	0	0	0	565
14	0	0	0	0	577
15	0	0	0	0	588
0	0	0	0	0	580
1	0	0	0	0	556
2	0	0	0	0	544
3	0	0	0	0	492
4	0	0	0	0	473
5	0	0	0	0	455
6	0	0	0	0	446
7	0	0	0	0	438
8	0	0	0	0	444
9	0	0	0	0	457
10	0	0	0	0	464
11	0	0	0	0	468
12	0	0	0	0	472
13	0	0	0	0	483
14	0	0	0	0	493
15	0	0	0	0	484
0	0	0	0	0	488
1	0	0	0	0	490
2	0	0	0	0	498
3	0	0	0	0	490
4	0	0	0	0	508
5	0	0	0	0	499
6	0	0	0	0	500
7	0	0	0	0	507
8	0	0	0	0	506
9	0	0	0	0	504
10	0	0	0	0	514
11	0	0	0	0	512
12	0	0	0	0	508
13	0	0	0	0	526
14	0	0	0	0	515
15	0	0	0	0	519
0	0	0	0	0	512
1	0	0	0	0	525
2	0	0	0	0	519
3	0	0	0	0	507
4	0	0	0	0	512
5	0	0	0	0	517
6	0	0	0	0	524
7	0	0	0	0	525
8	0	0	0	0	529
9	0	0	0	0	535
10	0	0	0	0	547
11	0	0	0	0	537
12	0	0	0	0	543
13	0	0	0	0	532
14	0	0	0	0	511
15	0	0	0	0	501
0	0	0	0	0	496
1	0	0	0	0	497
2	0	0	0	0	497
3	0	0	0	0	497
4	0	0	0	0	495
5	0	0	0	0	501
6	0	0	0	0	462
7	0	0	0	0	500
8	0	0	0	0	743
9	0	0	0	0	921
10	0	0	0	0	417
11	0	0	0	0	268
12	0	0	0	0	378
13	0	0	0	0	476
14	0	0	0	0	488
15	0	0	0	0	497
0	0	0	0	0	507
1	0	0	0	0	519
2	0	0	0	0	512
3	0	0	0	0	514
4	0	0	0	0	519
5	0	0	0	0	521
6	0	0	0	0	524
7	0	0	0	0	527
8	0	0	0	0	525
9	0	0	0	0	533
10	0	0	0	0	543
11	0	0	0	0	533
12	0	0	0	0	546
13	0	0	0	0	550
14	0	0	0	0	557
15	0	0	0	0	576
0	0	0	0	0	579
1	0	0	0	0	579
2	0	0	0	0	579
3	0	0	0	0	559
4	0	0	0	0	521
5	0	0	0	0	492
6	0	0	0	0	465
7	0	0	0	0	447
8	0	0	0	0	452
9	0	0	0	0	450
10	0	0	0	0	451
11	0	0	0	0	456
12	0	0	0	0	469
13	0	0	0	0	473
14	0	0	0	0	475
15	0	0	0	0	481
0	0	0	0	0	478
1	0	0	0	0	487
2	0	0	0	0	486
3	0	0	0	0	494
4	0	0	0	0	494
5	0	0	0	0	495
6	0	0	0	0	493
7	0	0	0	0	497
8	0	0	0	0	496
9	0	0	0	0	508
10	0	0	0	0	509
11	0	0	0	0	513
12	0	0	0	0	513
13	0	0	0	0	515
14	0	0	0	0	511
15	0	0	0	0	510
0	0	0	0	0	512
1	0	0	0	0	506
2	0	0	0	0	513
3	0	0	0	0	519
4	0	0	0	0	513
5	0	0	0	0	522
6	0	0	0	0	517
7	0	0	0	0	516
8	0	0	0	0	519
9	0	0	0	0	513
10	0	0	0	0	519
11	0	0	0	0	532
12	0	0	0	0	529
13	0	0	0	0	545
14	0	0	0	0	545
15	0	0	0	0	545
0	0	0	0	0	534
1	0	0	0	0	529
2	0	0	0	0	506
3	0	0	0	0	509
4	0	0	0	0	489
5	0	0	0	0	502
6	0	0	0	0	500
7	0	0	0	0	497
8	0	0	0	0	503
9	0	0	0	0	504
10	0	0	0	0	463
11	0	0	0	0	479
12	0	0	0	0	703
13	0	0	0	0	923
14	0	0	0	0	495
15	0	0	0	0	264
0	0	0	0	0	361
1	0	0	0	0	463
2	0	0	0	0	488
3	0	0	0	0	500
4	0	0	0	0	505
5	0	0	0	0	513
6	0	0	0	0	509
7	0	0	0	0	511
8	0	0	0	0	519
9	0	0	0	0	514
10	0	0	0	0	517
11	0	0	0	0	517
12	0	0	0	0	531
13	0	0	0	0	531
14	0	0	0	0	540
15	0	0	0	0	535
0	0	0	0	0	541
1	0	0	0	0	549
2	0	0	0	0	556
3	0	0	0	0	568
4	0	0	0	0	575
5	0	0	0	0	580
6	0	0	0	0	577
7	0	0	0	0	566
8	0	0	0	0	533
9	0	0	0	0	488
10	0	0	0	0	467
11	0	0	0	0	451
12	0	0	0	0	448
13	0	0	0	0	450
14	0	0	0	0	442
15	0	0	0	0	455
0	0	0	0	0	463
1	0	0	0	0	465
2	0	0	0	0	480
3	0	0	0	0	475
4	0	0	0	0	485
5	0	0	0	0	486
6	0	0	0	0	488
7	0	0	0	0	496
8	0	0	0	0	490
9	0	0	0	0	503
10	0	0	0	0	503
11	0	0	0	0	503
12	0	0	0	0	507
13	0	0	0	0	517
14	0	0	0	0	508
15	0	0	0	0	509
0	0	0	0	0	509
1	0	0	0	0	510
2	0	0	0	0	506
3	0	0	0	0	511
4	0	0	0	0	515
5	0	0	0	0	514
6	0	0	0	0	517
7	0	0	0	0	512
8	0	0	0	0	520
9	0	0	0	0	521
10	0	0	0	0	515
11	0	0	0	0	509
12	0	0	0	0	516
13	0	0	0	0	512
14	0	0	0	0	516
15	0	0	0	0	517
0	0	0	0	0	526
1	0	0	0	0	519
2	0	0	0	0	521
3	0	0	0	0	524
4	0	0	0	0	535
5	0	0	0	0	541
6	0	0	0	0	534
7	0	0	0	0	546
8	0	0	0	0	534
9	0	0	0	0	521
10	0	0	0	0	497
11	0	0	0	0	496
12	0	0	0	0	502
13	0	0	0	0	491
14	0	0	0	0	491
15	0	0	0	0	496
0	0	0	0	0	503
1	0	0	0	0	478
2	0	0	0	0	466
3	0	0	0	0	644
4	0	0	0	0	916
5	0	0	0	0	624
6	0	0	0	0	268
7	0	0	0	0	335
8	0	0	0	0	444
9	0	0	0	0	494
10	0	0	0	0	497
11	0	0	0	0	504
12	0	0	0	0	503
13	0	0	0	0	507
14	0	0	0	0	515
15	0	0	0	0	525
0	0	0	0	0	517
1	0	0	0	0	520
2	0	0	0	0	529
3	0	0	0	0	530
4	0	0	0	0	528
5	0	0	0	0	528
6	0	0	0	0	537
7	0	0	0	0	539
8	0	0	0	0	534
9	0	0	0	0	556
10	0	0	0	0	560
11	0	0	0	0	576
12	0	0	0	0	580
13	0	0	0	0	582
14	0	0	0	0	567
15	0	0	0	0	547
0	0	0	0	0	506
1	0	0	0	0	470
2	0	0	0	0	453
3	0	0	0	0	449
4	0	0	0	0	437
5	0	0	0	0	447
6	0	0	0	0	455
7	0	0	0	0	465
8	0	0	0	0	460
9	0	0	0	0	477
10	0	0	0	0	488
11	0	0	0	0	481
12	0	0	0	0	481
13	0	0	0	0	496
14	0	0	0	0	496
15	0	0	0	0	492
0	0	0	0	0	487
1	0	0	0	0	504
2	0	0	0	0	505
3	0	0	0	0	504
4	0	0	0	0	501
5	0	0	0	0	507
6	0	0	0	0	515
7	0	0	0	0	517
8	0	0	0	0	508
9	0	0	0	0	518
10	0	0	0	0	510
11	0	0	0	0	516
12	0	0	0	0	508
13	0	0	0	0	518
14	0	0	0	0	510
15	0	0	0	0	515
0	0	0	0	0	516
1	0	0	0	0	524
2	0	0	0	0	515
3	0	0	0	0	516
4	0	0	0	0	521
5	0	0	0	0	522
6	0	0	0	0	522
7	0	0	0	0	521
8	0	0	0	0	532
9	0	0	0	0	542
10	0	0	0	0	547
11	0	0	0	0	534
12	0	0	0	0	546
13	0	0	0	0	531
14	0	0	0	0	517
15	0	0	0	0	499
0	0	0	0	0	496
1	0	0	0	0	503
2	0	0	0	0	495
3	0	0	0	0	505
4	0	0	0	0	488
5	0	0	0	0	509
6	0	0	0	0	457
7	0	0	0	0	542
8	0	0	0	0	810
9	0	0	0	0	836
10	0	0	0	0	327
11	0	0	0	0	294
12	0	0	0	0	410
13	0	0	0	0	483
14	0	0	0	0	502
15	0	0	0	0	501
0	0	0	0	0	507
1	0	0	0	0	521
2	0	0	0	0	511
3	0	0	0	0	519
4	0	0	0	0	519
5	0	0	0	0	513
6	0	0	0	0	521
7	0	0	0	0	531
8	0	0	0	0	523
9	0	0	0	0	535
10	0	0	0	0	531
11	0	0	0	0	539
12	0	0	0	0	542
13	0	0	0	0	554
14	0	0	0	0	560
15	0	0	0	0	571
0	0	0	0	0	582
1	0	0	0	0	587
2	0	0	0	0	581
3	0	0	0	0	560
4	0	0	0	0	515
5	0	0	0	0	485
6	0	0	0	0	448
7	0	0	0	0	435
8	0	0	0	0	438
9	0	0	0	0	440
10	0	0	0	0	452
11	0	0	0	0	451
12	0	0	0	0	464
13	0	0	0	0	469
14	0	0	0	0	466
15	0	0	0	0	481
0	0	0	0	0	484
1	0	0	0	0	482
2	0	0	0	0	490
3	0	0	0	0	492
4	0	0	0	0	496
5	0	0	0	0	499
6	0	0	0	0	491
7	0	0	0	0	501
8	0	0	0	0	504
9	0	0	0	0	504
10	0	0	0	0	511
11	0	0	0	0	514
12	0	0	0	0	511
13	0	0	0	0	507
14	0	0	0	0	512
15	0	0	0	0	520
0	0	0	0	0	509
1	0	0	0	0	511
2	0	0	0	0	518
3	0	0	0	0	527
4	0	0	0	0	527
5	0	0	0	0	547
6	0	0	0	0	545
7	0	0	0	0	540
8	0	0	0	0	536
9	0	0	0	0	522
10	0	0	0	0	502
11	0	0	0	0	504
12	0	0	0	0	493
13	0	0	0	0	500
14	0	0	0	0	497
15	0	0	0	0	502
0	0	0	0	0	496
1	0	0	0	0	491
2	0	0	0	0	457
3	0	0	0	0	594
4	0	0	0	0	875
5	0	0	0	0	710
6	0	0	0	0	273
7	0	0	0	0	321
8	0	0	0	0	443
9	0	0	0	0	488
10	0	0	0	0	507
11	0	0	0	0	515
12	0	0	0	0	511
13	0	0	0	0	518
14	0	0	0	0	525
15	0	0	0	0	518
0	0	0	0	0	526
1	0	0	0	0	528
2	0	0	0	0	528
3	0	0	0	0	530
4	0	0	0	0	530
5	0	0	0	0	536
6	0	0	0	0	539
7	0	0	0	0	540
8	0	0	0	0	557
9	0	0	0	0	568
10	0	0	0	0	572
11	0	0	0	0	579
12	0	0	0	0	588
13	0	0	0	0	582
14	0	0	0	0	569
15	0	0	0	0	542
0	0	0	0	0	496
1	0	0	0	0	461
2	0	0	0	0	445
3	0	0	0	0	436
4	0	0	0	0	442
5	0	0	0	0	446
6	0	0	0	0	448
7	0	0	0	0	461
8	0	0	0	0	467
9	0	0	0	0	473
10	0	0	0	0	479
11	0	0	0	0	480
12	0	0	0	0	487
13	0	0	0	0	491
14	0	0	0	0	495
15	0	0	0	0	493
0	0	0	0	0	494
1	0	0	0	0	502
2	0	0	0	0	509
3	0	0	0	0	510
4	0	0	0	0	508
5	0	0	0	0	512
6	0	0	0	0	507
7	0	0	0	0	513
8	0	0	0	0	516
9	0	0	0	0	507
10	0	0	0	0	517
11	0	0	0	0	507
12	0	0	0	0	513
13	0	0	0	0	518
14	0	0	0	0	522
15	0	0	0	0	528
0	0	0	0	0	527
1	0	0	0	0	518
2	0	0	0	0	536
3	0	0	0	0	549
4	0	0	0	0	540
5	0	0	0	0	539
6	0	0	0	0	524
7	0	0	0	0	516
8	0	0	0	0	496
9	0	0	0	0	498
10	0	0	0	0	490
11	0	0	0	0	497
12	0	0	0	0	502
13	0	0	0	0	501
14	0	0	0	0	503
15	0	0	0	0	461
0	0	0	0	0	578
1	0	0	0	0	857
2	0	0	0	0	777
3	0	0	0	0	294
4	0	0	0	0	315
5	0	0	0	0	426
6	0	0	0	0	487
7	0	0	0	0	497
8	0	0	0	0	505
9	0	0	0	0	510
10	0	0	0	0	506
11	0	0	0	0	512
12	0	0	0	0	512
13	0	0	0	0	513
14	0	0	0	0	524
15	0	0	0	0	522
0	0	0	0	0	526
1	0	0	0	0	526
2	0	0	0	0	529
3	0	0	0	0	532
4	0	0	0	0	536
5	0	0	0	0	546
6	0	0	0	0	556
7	0	0	0	0	560
8	0	0	0	0	569
9	0	0	0	0	573
10	0	0	0	0	587
11	0	0	0	0	571
12	0	0	0	0	543
13	0	0	0	0	508
14	0	0	0	0	472
15	0	0	0	0	455
0	0	0	0	0	435
1	0	0	0	0	452
2	0	0	0	0	450
3	0	0	0	0	457
4	0	0	0	0	465
5	0	0	0	0	483
6	0	0	0	0	471
7	0	0	0	0	480
8	0	0	0	0	484
9	0	0	0	0	487
10	0	0	0	0	484
11	0	0	0	0	493
12	0	0	0	0	489
13	0	0	0	0	492
14	0	0	0	0	501
15	0	0	0	0	504
0	0	0	0	0	506
1	0	0	0	0	504
2	0	0	0	0	505
3	0	0	0	0	499
4	0	0	0	0	508
5	0	0	0	0	515
6	0	0	0	0	506
7	0	0	0	0	512
8	0	0	0	0	515
9	0	0	0	0	517
10	0	0	0	0	521
11	0	0	0	0	516
12	0	0	0	0	512
13	0	0	0	0	519
14	0	0	0	0	525
15	0	0	0	0	521
0	0	0	0	0	523
1	0	0	0	0	534
2	0	0	0	0	547
3	0	0	0	0	546
4	0	0	0	0	543
5	0	0	0	0	536
6	0	0	0	0	517
7	0	0	0	0	500
8	0	0	0	0	494
9	0	0	0	0	504
10	0	0	0	0	501
11	0	0	0	0	497
12	0	0	0	0	501
13	0	0	0	0	503
14	0	0	0	0	456
15	0	0	0	0	485
0	0	0	0	0	711
1	0	0	0	0	924
2	0	0	0	0	507
3	0	0	0	0	259
4	0	0	0	0	364
5	0	0	0	0	465
6	0	0	0	0	480
7	0	0	0	0	496
8	0	0	0	0	506
9	0	0	0	0	516
10	0	0	0	0	505
11	0	0	0	0	514
12	0	0	0	0	515
13	0	0	0	0	523
14	0	0	0	0	524
15	0	0	0	0	524
0	0	0	0	0	513
1	0	0	0	0	524
2	0	0	0	0	543
3	0	0	0	0	531
4	0	0	0	0	537
5	0	0	0	0	556
6	0	0	0	0	559
7	0	0	0	0	563
8	0	0	0	0	573
9	0	0	0	0	586
10	0	0	0	0	582
11	0	0	0	0	563
12	0	0	0	0	524
13	0	0	0	0	486
14	0	0	0	0	469
15	0	0	0	0	456
0	0	0	0	0	442
1	0	0	0	0	443
2	0	0	0	0	453
3	0	0	0	0	473
4	0	0	0	0	463
5	0	0	0	0	464
6	0	0	0	0	478
7	0	0	0	0	480
8	0	0	0	0	487
9	0	0	0	0	494
10	0	0	0	0	482
11	0	0	0	0	493
12	0	0	0	0	499
13	0	0	0	0	496
14	0	0	0	0	497
15	0	0	0	0	501
0	0	0	0	0	511
1	0	0	0	0	500
2	0	0	0	0	507
3	0	0	0	0	508
4	0	0	0	0	505
5	0	0	0	0	512
6	0	0	0	0	519
7	0	0	0	0	512
8	0	0	0	0	508
9	0	0	0	0	514
10	0	0	0	0	515
11	0	0	0	0	513
12	0	0	0	0	515
13	0	0	0	0	518
14	0	0	0	0	520
15	0	0	0	0	521
0	0	0	0	0	526
1	0	0	0	0	535
2	0	0	0	0	547
3	0	0	0	0	543
4	0	0	0	0	536
5	0	0	0	0	539
6	0	0	0	0	526
7	0	0	0	0	512
8	0	0	0	0	496
9	0	0	0	0	494
10	0	0	0	0	504
11	0	0	0	0	496
12	0	0	0	0	499
13	0	0	0	0	495
14	0	0	0	0	499
15	0	0	0	0	448
0	0	0	0	0	547
1	0	0	0	0	823
2	0	0	0	0	836
3	0	0	0	0	326
4	0	0	0	0	300
5	0	0	0	0	408
6	0	0	0	0	487
7	0	0	0	0	499
8	0	0	0	0	502
9	0	0	0	0	504
10	0	0	0	0	521
11	0	0	0	0	517
12	0	0	0	0	519
13	0	0	0	0	520
14	0	0	0	0	524
15	0	0	0	0	531
0	0	0	0	0	523
1	0	0	0	0	524
2	0	0	0	0	532
3	0	0	0	0	534
4	0	0	0	0	546
5	0	0	0	0	554
6	0	0	0	0	557
7	0	0	0	0	558
8	0	0	0	0	580
9	0	0	0	0	588
10	0	0	0	0	586
11	0	0	0	0	575
12	0	0	0	0	549
13	0	0	0	0	506
14	0	0	0	0	469
15	0	0	0	0	451
0	0	0	0	0	436
1	0	0	0	0	448
2	0	0	0	0	450
3	0	0	0	0	448
4	0	0	0	0	451
5	0	0	0	0	451
6	0	0	0	0	462
7	0	0	0	0	475
8	0	0	0	0	482
9	0	0	0	0	489
10	0	0	0	0	482
11	0	0	0	0	489
12	0	0	0	0	494
13	0	0	0	0	492
14	0	0	0	0	487
15	0	0	0	0	501
0	0	0	0	0	497
1	0	0	0	0	506
2	0	0	0	0	510
3	0	0	0	0	511
4	0	0	0	0	518
5	0	0	0	0	515
6	0	0	0	0	503
7	0	0	0	0	513
8	0	0	0	0	513
9	0	0	0	0	521
10	0	0	0	0	524
11	0	0	0	0	521
12	0	0	0	0	529
13	0	0	0	0	539
14	0	0	0	0	550
15	0	0	0	0	528
0	0	0	0	0	540
1	0	0	0	0	527
2	0	0	0	0	509
3	0	0	0	0	502
4	0	0	0	0	496
5	0	0	0	0	492
6	0	0	0	0	500
7	0	0	0	0	502
8	0	0	0	0	500
9	0	0	0	0	497
10	0	0	0	0	454
11	0	0	0	0	546
12	0	0	0	0	816
13	0	0	0	0	806
14	0	0	0	0	319
15	0	0	0	0	300
0	0	0	0	0	416
1	0	0	0	0	488
2	0	0	0	0	502
3	0	0	0	0	510
4	0	0	0	0	515
5	0	0	0	0	526
6	0	0	0	0	520
7	0	0	0	0	525
8	0	0	0	0	513
9	0	0	0	0	525
10	0	0	0	0	532
11	0	0	0	0	525
12	0	0	0	0	527
13	0	0	0	0	537
14	0	0	0	0	539
15	0	0	0	0	541
0	0	0	0	0	551
1	0	0	0	0	564
2	0	0	0	0	572
3	0	0	0	0	580
4	0	0	0	0	582
5	0	0	0	0	583
6	0	0	0	0	569
7	0	0	0	0	539
8	0	0	0	0	504
9	0	0	0	0	475
10	0	0	0	0	446
11	0	0	0	0	445
12	0	0	0	0	439
13	0	0	0	0	447
14	0	0	0	0	454
15	0	0	0	0	460
0	0	0	0	0	462
1	0	0	0	0	472
2	0	0	0	0	478
3	0	0	0	0	486
4	0	0	0	0	484
5	0	0	0	0	486
6	0	0	0	0	489
7	0	0	0	0	496
8	0	0	0	0	492
9	0	0	0	0	501
10	0	0	0	0	504
11	0	0	0	0	510
12	0	0	0	0	508
13	0	0	0	0	505
14	0	0	0	0	515
15	0	0	0	0	513
0	0	0	0	0	505
1	0	0	0	0	510
2	0	0	0	0	515
3	0	0	0	0	519
4	0	0	0	0	514
5	0	0	0	0	516
6	0	0	0	0	519
7	0	0	0	0	521
8	0	0	0	0	524
9	0	0	0	0	524
10	0	0	0	0	530
11	0	0	0	0	541
12	0	0	0	0	543
13	0	0	0	0	540
14	0	0	0	0	540
15	0	0	0	0	524
0	0	0	0	0	519
1	0	0	0	0	497
2	0	0	0	0	505
3	0	0	0	0	498
4	0	0	0	0	493
5	0	0	0	0	506
6	0	0	0	0	499
7	0	0	0	0	491
8	0	0	0	0	459
9	0	0	0	0	552
10	0	0	0	0	823
11	0	0	0	0	851
12	0	0	0	0	323
13	0	0	0	0	308
14	0	0	0	0	423
15	0	0	0	0	483
0	0	0	0	0	494
1	0	0	0	0	497
2	0	0	0	0	505
3	0	0	0	0	507
4	0	0	0	0	505
5	0	0	0	0	510
6	0	0	0	0	514
7	0	0	0	0	526
8	0	0	0	0	526
9	0	0	0	0	525
10	0	0	0	0	527
11	0	0	0	0	524
12	0	0	0	0	536
13	0	0	0	0	539
14	0	0	0	0	539
15	0	0	0	0	549
0	0	0	0	0	571
1	0	0	0	0	575
2	0	0	0	0	579
3	0	0	0	0	579
4	0	0	0	0	574
5	0	0	0	0	539
6	0	0	0	0	514
7	0	0	0	0	474
8	0	0	0	0	458
9	0	0	0	0	447
10	0	0	0	0	444
11	0	0	0	0	449
12	0	0	0	0	461
13	0	0	0	0	456
14	0	0	0	0	472
15	0	0	0	0	476
0	0	0	0	0	479
1	0	0	0	0	481
2	0	0	0	0	487
3	0	0	0	0	493
4	0	0	0	0	484
5	0	0	0	0	499
6	0	0	0	0	498
7	0	0	0	0	494
8	0	0	0	0	498
9	0	0	0	0	505
10	0	0	0	0	504
11	0	0	0	0	506
12	0	0	0	0	508
13	0	0	0	0	513
14	0	0	0	0	513
15	0	0	0	0	508
0	0	0	0	0	516
1	0	0	0	0	512
2	0	0	0	0	523
3	0	0	0	0	521
4	0	0	0	0	515
5	0	0	0	0	520
6	0	0	0	0	531
7	0	0	0	0	528
8	0	0	0	0	537
9	0	0	0	0	546
10	0	0	0	0	543
11	0	0	0	0	543
12	0	0	0	0	544
13	0	0	0	0	522
14	0	0	0	0	502
15	0	0	0	0	496
0	0	0	0	0	491
1	0	0	0	0	496
2	0	0	0	0	500
3	0	0	0	0	499
4	0	0	0	0	503
5	0	0	0	0	495
6	0	0	0	0	462
7	0	0	0	0	603
8	0	0	0	0	883
9	0	0	0	0	727
10	0	0	0	0	289
11	0	0	0	0	326
12	0	0	0	0	443
13	0	0	0	0	486
14	0	0	0	0	499
15	0	0	0	0	503
0	0	0	0	0	500
1	0	0	0	0	514
2	0	0	0	0	518
3	0	0	0	0	525
4	0	0	0	0	519
5	0	0	0	0	521
6	0	0	0	0	528
7	0	0	0	0	517
8	0	0	0	0	536
9	0	0	0	0	539
10	0	0	0	0	535
11	0	0	0	0	547
12	0	0	0	0	554
13	0	0	0	0	555
14	0	0	0	0	571
15	0	0	0	0	582
0	0	0	0	0	588
1	0	0	0	0	591
2	0	0	0	0	576
3	0	0	0	0	539
4	0	0	0	0	499
5	0	0	0	0	464
6	0	0	0	0	453
7	0	0	0	0	439
8	0	0	0	0	459
9	0	0	0	0	451
10	0	0	0	0	470
11	0	0	0	0	459
12	0	0	0	0	473
13	0	0	0	0	476
14	0	0	0	0	480
15	0	0	0	0	485
0	0	0	0	0	496
1	0	0	0	0	489
2	0	0	0	0	499
3	0	0	0	0	504
4	0	0	0	0	502
5	0	0	0	0	495
6	0	0	0	0	499
7	0	0	0	0	509
8	0	0	0	0	512
9	0	0	0	0	514
10	0	0	0	0	509
11	0	0	0	0	524
12	0	0	0	0	515
13	0	0	0	0	516
14	0	0	0	0	520
15	0	0	0	0	518
0	0	0	0	0	523
1	0	0	0	0	533
2	0	0	0	0	535
3	0	0	0	0	543
4	0	0	0	0	544
5	0	0	0	0	540
6	0	0	0	0	539
7	0	0	0	0	534
8	0	0	0	0	516
9	0	0	0	0	499
10	0	0	0	0	507
11	0	0	0	0	506
12	0	0	0	0	499
13	0	0	0	0	499
14	0	0	0	0	507
15	0	0	0	0	509
0	0	0	0	0	464
1	0	0	0	0	464
2	0	0	0	0	649
3	0	0	0	0	902
4	0	0	0	0	553
5	0	0	0	0	278
6	0	0	0	0	353
7	0	0	0	0	455
8	0	0	0	0	488
9	0	0	0	0	497
10	0	0	0	0	509
11	0	0	0	0	507
12	0	0	0	0	511
13	0	0	0	0	519
14	0	0	0	0	516
15	0	0	0	0	533
0	0	0	0	0	524
1	0	0	0	0	517
2	0	0	0	0	519
3	0	0	0	0	521
4	0	0	0	0	530
5	0	0	0	0	534
6	0	0	0	0	539
7	0	0	0	0	541
8	0	0	0	0	563
9	0	0	0	0	569
10	0	0	0	0	572
11	0	0	0	0	581
12	0	0	0	0	581
13	0	0	0	0	562
14	0	0	0	0	514
15	0	0	0	0	471
0	0	0	0	0	449
1	0	0	0	0	430
2	0	0	0	0	428
3	0	0	0	0	430
4	0	0	0	0	445
5	0	0	0	0	452
6	0	0	0	0	460
7	0	0	0	0	463
8	0	0	0	0	466
9	0	0	0	0	469
10	0	0	0	0	470
11	0	0	0	0	480
12	0	0	0	0	486
13	0	0	0	0	483
14	0	0	0	0	492
15	0	0	0	0	490
0	0	0	0	0	494
1	0	0	0	0	495
2	0	0	0	0	492
3	0	0	0	0	492
4	0	0	0	0	496
5	0	0	0	0	502
6	0	0	0	0	509
7	0	0	0	0	504
8	0	0	0	0	509
9	0	0	0	0	506
10	0	0	0	0	513
11	0	0	0	0	504
12	0	0	0	0	506
13	0	0	0	0	512
14	0	0	0	0	518
15	0	0	0	0	519
0	0	0	0	0	543
1	0	0	0	0	540
2	0	0	0	0	535
3	0	0	0	0	537
4	0	0	0	0	513
5	0	0	0	0	495
6	0	0	0	0	487
7	0	0	0	0	492
8	0	0	0	0	497
9	0	0	0	0	492
10	0	0	0	0	497
11	0	0	0	0	500
12	0	0	0	0	484
13	0	0	0	0	458
14	0	0	0	0	602
15	0	0	0	0	871
0	0	0	0	0	720
1	0	0	0	0	302
2	0	0	0	0	337
3	0	0	0	0	446
4	0	0	0	0	481
5	0	0	0	0	500
6	0	0	0	0	492
7	0	0	0	0	503
8	0	0	0	0	507
9	0	0	0	0	506
10	0	0	0	0	513
11	0	0	0	0	520
12	0	0	0	0	521
13	0	0	0	0	529
14	0	0	0	0	519
15	0	0	0	0	523
0	0	0	0	0	529
1	0	0	0	0	531
2	0	0	0	0	536
3	0	0	0	0	556
4	0	0	0	0	554
5	0	0	0	0	558
6	0	0	0	0	582
7	0	0	0	0	578
8	0	0	0	0	585
9	0	0	0	0	572
10	0	0	0	0	539
11	0	0	0	0	499
12	0	0	0	0	468
13	0	0	0	0	455
14	0	0	0	0	455
15	0	0	0	0	449
0	0	0	0	0	451
1	0	0	0	0	467
2	0	0	0	0	474
3	0	0	0	0	473
4	0	0	0	0	477
5	0	0	0	0	476
6	0	0	0	0	495
7	0	0	0	0	499
8	0	0	0	0	499
9	0	0	0	0	498
10	0	0	0	0	507
11	0	0	0	0	502
12	0	0	0	0	506
13	0	0	0	0	502
14	0	0	0	0	514
15	0	0	0	0	509
0	0	0	0	0	513
1	0	0	0	0	505
2	0	0	0	0	524
3	0	0	0	0	514
4	0	0	0	0	524
5	0	0	0	0	523
6	0	0	0	0	526
7	0	0	0	0	520
8	0	0	0	0	523
9	0	0	0	0	529
10	0	0	0	0	528
11	0	0	0	0	522
12	0	0	0	0	523
13	0	0	0	0	517
14	0	0	0	0	528
15	0	0	0	0	534
0	0	0	0	0	533
1	0	0	0	0	547
2	0	0	0	0	546
3	0	0	0	0	556
4	0	0	0	0	536
5	0	0	0	0	536
6	0	0	0	0	543
7	0	0	0	0	526
8	0	0	0	0	508
9	0	0	0	0	505
10	0	0	0	0	505
11	0	0	0	0	503
12	0	0	0	0	506
13	0	0	0	0	504
14	0	0	0	0	510
15	0	0	0	0	464
0	0	0	0	0	503
1	0	0	0	0	739
2	0	0	0	0	935
3	0	0	0	0	463
4	0	0	0	0	291
5	0	0	0	0	389
6	0	0	0	0	474
7	0	0	0	0	499
8	0	0	0	0	503
9	0	0	0	0	512
10	0	0	0	0	516
11	0	0	0	0	514
12	0	0	0	0	519
13	0	0	0	0	528
14	0	0	0	0	536
15	0	0	0	0	522
0	0	0	0	0	533
1	0	0	0	0	526
2	0	0	0	0	538
3	0	0	0	0	543
4	0	0	0	0	540
5	0	0	0	0	556
6	0	0	0	0	562
7	0	0	0	0	555
8	0	0	0	0	568
9	0	0	0	0	571
10	0	0	0	0	597
11	0	0	0	0	579
12	0	0	0	0	573
13	0	0	0	0	532
14	0	0	0	0	483
15	0	0	0	0	460
0	0	0	0	0	449
1	0	0	0	0	449
2	0	0	0	0	440
3	0	0	0	0	457
4	0	0	0	0	451
5	0	0	0	0	460
6	0	0	0	0	470
7	0	0	0	0	479
8	0	0	0	0	482
9	0	0	0	0	481
10	0	0	0	0	481
11	0	0	0	0	478
12	0	0	0	0	489
13	0	0	0	0	477
14	0	0	0	0	499
15	0	0	0	0	492
0	0	0	0	0	495
1	0	0	0	0	489
2	0	0	0	0	497
3	0	0	0	0	492
4	0	0	0	0	498
5	0	0	0	0	509
6	0	0	0	0	504
7	0	0	0	0	507
8	0	0	0	0	502
9	0	0	0	0	499
10	0	0	0	0	508
11	0	0	0	0	505
12	0	0	0	0	504
13	0	0	0	0	507
14	0	0	0	0	512
15	0	0	0	0	516
0	0	0	0	0	531
1	0	0	0	0	527
2	0	0	0	0	533
3	0	0	0	0	522
4	0	0	0	0	510
5	0	0	0	0	498
6	0	0	0	0	486
7	0	0	0	0	486
8	0	0	0	0	483
9	0	0	0	0	491
10	0	0	0	0	489
11	0	0	0	0	492
12	0	0	0	0	492
13	0	0	0	0	440
14	0	0	0	0	479
15	0	0	0	0	708
0	0	0	0	0	880
1	0	0	0	0	412
2	0	0	0	0	287
3	0	0	0	0	373
4	0	0	0	0	463
5	0	0	0	0	491
6	0	0	0	0	493
7	0	0	0	0	501
8	0	0	0	0	512
9	0	0	0	0	509
10	0	0	0	0	513
11	0	0	0	0	514
12	0	0	0	0	515
13	0	0	0	0	515
14	0	0	0	0	513
15	0	0	0	0	511
0	0	0	0	0	521
1	0	0	0	0	528
2	0	0	0	0	531
3	0	0	0	0	541
4	0	0	0	0	542
5	0	0	0	0	557
6	0	0	0	0	576
7	0	0	0	0	570
8	0	0	0	0	574
9	0	0	0	0	569
10	0	0	0	0	557
11	0	0	0	0	503
12	0	0	0	0	475
13	0	0	0	0	451
14	0	0	0	0	435
15	0	0	0	0	434
0	0	0	0	0	438
1	0	0	0	0	444
2	0	0	0	0	459
3	0	0	0	0	466
4	0	0	0	0	471
5	0	0	0	0	473
6	0	0	0	0	481
7	0	0	0	0	480
8	0	0	0	0	485
9	0	0	0	0	489
10	0	0	0	0	494
11	0	0	0	0	494
12	0	0	0	0	494
13	0	0	0	0	512
14	0	0	0	0	501
15	0	0	0	0	497
0	0	0	0	0	507
1	0	0	0	0	516
2	0	0	0	0	507
3	0	0	0	0	507
4	0	0	0	0	507
5	0	0	0	0	519
6	0	0	0	0	520
7	0	0	0	0	508
8	0	0	0	0	521
9	0	0	0	0	518
10	0	0	0	0	520
11	0	0	0	0	524
12	0	0	0	0	539
13	0	0	0	0	542
14	0	0	0	0	538
15	0	0	0	0	543
0	0	0	0	0	536
1	0	0	0	0	512
2	0	0	0	0	510
3	0	0	0	0	505
4	0	0	0	0	499
5	0	0	0	0	500
6	0	0	0	0	506
7	0	0	0	0	505
8	0	0	0	0	507
9	0	0	0	0	464
10	0	0	0	0	482
11	0	0	0	0	694
12	0	0	0	0	866
13	0	0	0	0	503
14	0	0	0	0	332
15	0	0	0	0	408
0	0	0	0	0	480
1	0	0	0	0	499
2	0	0	0	0	502
3	0	0	0	0	509
4	0	0	0	0	516
5	0	0	0	0	514
6	0	0	0	0	519
7	0	0	0	0	527
8	0	0	0	0	535
9	0	0	0	0	522
10	0	0	0	0	536
11	0	0	0	0	522
12	0	0	0	0	539
13	0	0	0	0	543
14	0	0	0	0	543
15	0	0	0	0	547
0	0	0	0	0	552
1	0	0	0	0	560
2	0	0	0	0	572
3	0	0	0	0	579
4	0	0	0	0	587
5	0	0	0	0	573
6	0	0	0	0	566
7	0	0	0	0	536
8	0	0	0	0	496
9	0	0	0	0	467
10	0	0	0	0	454
11	0	0	0	0	464
12	0	0	0	0	469
13	0	0	0	0	466
14	0	0	0	0	479
15	0	0	0	0	469
0	0	0	0	0	487
1	0	0	0	0	485
2	0	0	0	0	485
3	0	0	0	0	500
4	0	0	0	0	501
5	0	0	0	0	504
6	0	0	0	0	511
7	0	0	0	0	497
8	0	0	0	0	504
9	0	0	0	0	504
10	0	0	0	0	511
11	0	0	0	0	512
12	0	0	0	0	511
13	0	0	0	0	515
14	0	0	0	0	515
15	0	0	0	0	520
0	0	0	0	0	515
1	0	0	0	0	512
2	0	0	0	0	525
3	0	0	0	0	519
4	0	0	0	0	516
5	0	0	0	0	526
6	0	0	0	0	538
7	0	0	0	0	528
8	0	0	0	0	535
9	0	0	0	0	549
10	0	0	0	0	543
11	0	0	0	0	545
12	0	0	0	0	533
13	0	0	0	0	509
14	0	0	0	0	497
15	0	0	0	0	496
0	0	0	0	0	507
1	0	0	0	0	501
2	0	0	0	0	490
3	0	0	0	0	492
4	0	0	0	0	501
5	0	0	0	0	443
6	0	0	0	0	536
7	0	0	0	0	792
8	0	0	0	0	857
9	0	0	0	0	344
10	0	0	0	0	309
11	0	0	0	0	419
12	0	0	0	0	478
13	0	0	0	0	492
14	0	0	0	0	495
15	0	0	0	0	491
0	0	0	0	0	505
1	0	0	0	0	510
2	0	0	0	0	504
3	0	0	0	0	518
4	0	0	0	0	519
5	0	0	0	0	514
6	0	0	0	0	511
7	0	0	0	0	520
8	0	0	0	0	519
9	0	0	0	0	530
10	0	0	0	0	528
11	0	0	0	0	551
12	0	0	0	0	552
13	0	0	0	0	556
14	0	0	0	0	564
15	0	0	0	0	568
0	0	0	0	0	576
1	0	0	0	0	569
2	0	0	0	0	543
3	0	0	0	0	503
4	0	0	0	0	478
5	0	0	0	0	448
6	0	0	0	0	438
7	0	0	0	0	441
8	0	0	0	0	447
9	0	0	0	0	460
10	0	0	0	0	467
11	0	0	0	0	463
12	0	0	0	0	472
13	0	0	0	0	472
14	0	0	0	0	480
15	0	0	0	0	479
0	0	0	0	0	487
1	0	0	0	0	482
2	0	0	0	0	487
3	0	0	0	0	485
4	0	0	0	0	497
5	0	0	0	0	489
6	0	0	0	0	492
7	0	0	0	0	491
8	0	0	0	0	499
9	0	0	0	0	498
10	0	0	0	0	508
11	0	0	0	0	499
12	0	0	0	0	509
13	0	0	0	0	514
14	0	0	0	0	504
15	0	0	0	0	515
0	0	0	0	0	516
1	0	0	0	0	513
2	0	0	0	0	524
3	0	0	0	0	530
4	0	0	0	0	539
5	0	0	0	0	545
6	0	0	0	0	540
7	0	0	0	0	539
8	0	0	0	0	527
9	0	0	0	0	497
10	0	0	0	0	487
11	0	0	0	0	486
12	0	0	0	0	487
13	0	0	0	0	498
14	0	0	0	0	496
15	0	0	0	0	496
0	0	0	0	0	492
1	0	0	0	0	448
2	0	0	0	0	549
3	0	0	0	0	861
4	0	0	0	0	765
5	0	0	0	0	292
6	0	0	0	0	297
7	0	0	0	0	429
8	0	0	0	0	499
9	0	0	0	0	497
10	0	0	0	0	509
11	0	0	0	0	521
12	0	0	0	0	525
13	0	0	0	0	518
14	0	0	0	0	528
15	0	0	0	0	522
0	0	0	0	0	536
1	0	0	0	0	531
2	0	0	0	0	527
3	0	0	0	0	535
4	0	0	0	0	535
5	0	0	0	0	542
6	0	0	0	0	547
7	0	0	0	0	562
8	0	0	0	0	575
9	0	0	0	0	572
10	0	0	0	0	587
11	0	0	0	0	584
12	0	0	0	0	589
13	0	0	0	0	576
14	0	0	0	0	543
15	0	0	0	0	505
0	0	0	0	0	480
1	0	0	0	0	461
2	0	0	0	0	454
3	0	0	0	0	448
4	0	0	0	0	455
5	0	0	0	0	467
6	0	0	0	0	462
7	0	0	0	0	476
8	0	0	0	0	493
9	0	0	0	0	496
10	0	0	0	0	495
11	0	0	0	0	501
12	0	0	0	0	508
13	0	0	0	0	510
14	0	0	0	0	513
15	0	0	0	0	513
0	0	0	0	0	508
1	0	0	0	0	513
2	0	0	0	0	526
3	0	0	0	0	528
4	0	0	0	0	513
5	0	0	0	0	518
6	0	0	0	0	529
7	0	0	0	0	528
8	0	0	0	0	530
9	0	0	0	0	535
10	0	0	0	0	541
11	0	0	0	0	541
12	0	0	0	0	542
13	0	0	0	0	551
14	0	0	0	0	545
15	0	0	0	0	545
0	0	0	0	0	539
1	0	0	0	0	512
2	0	0	0	0	509
3	0	0	0	0	512
4	0	0	0	0	512
5	0	0	0	0	509
6	0	0	0	0	500
7	0	0	0	0	509
8	0	0	0	0	507
9	0	0	0	0	454
10	0	0	0	0	537
11	0	0	0	0	788
12	0	0	0	0	809
13	0	0	0	0	342
14	0	0	0	0	325
15	0	0	0	0	429
0	0	0	0	0	490
1	0	0	0	0	496
2	0	0	0	0	499
3	0	0	0	0	502
4	0	0	0	0	505
5	0	0	0	0	506
6	0	0	0	0	515
7	0	0	0	0	512
8	0	0	0	0	515
9	0	0	0	0	516
10	0	0	0	0	516
11	0	0	0	0	513
12	0	0	0	0	526
13	0	0	0	0	525
14	0	0	0	0	530
15	0	0	0	0	524
0	0	0	0	0	542
1	0	0	0	0	549
2	0	0	0	0	560
3	0	0	0	0	558
4	0	0	0	0	562
5	0	0	0	0	555
6	0	0	0	0	520
7	0	0	0	0	486
8	0	0	0	0	459
9	0	0	0	0	441
10	0	0	0	0	441
11	0	0	0	0	440
12	0	0	0	0	450
13	0	0	0	0	444
14	0	0	0	0	465
15	0	0	0	0	458
0	0	0	0	0	469
1	0	0	0	0	470
2	0	0	0	0	470
3	0	0	0	0	473
4	0	0	0	0	479
5	0	0	0	0	483
6	0	0	0	0	480
7	0	0	0	0	488
8	0	0	0	0	483
9	0	0	0	0	498
10	0	0	0	0	492
11	0	0	0	0	493
12	0	0	0	0	494
13	0	0	0	0	501
14	0	0	0	0	503
15	0	0	0	0	495
0	0	0	0	0	512
1	0	0	0	0	509
2	0	0	0	0	515
3	0	0	0	0	528
4	0	0	0	0	537
5	0	0	0	0	530
6	0	0	0	0	527
7	0	0	0	0	518
8	0	0	0	0	497
9	0	0	0	0	480
10	0	0	0	0	492
11	0	0	0	0	489
12	0	0	0	0	490
13	0	0	0	0	489
14	0	0	0	0	504
15	0	0	0	0	483
0	0	0	0	0	451
1	0	0	0	0	564
2	0	0	0	0	802
3	0	0	0	0	723
4	0	0	0	0	309
5	0	0	0	0	341
6	0	0	0	0	455
7	0	0	0	0	493
8	0	0	0	0	497
9	0	0	0	0	494
10	0	0	0	0	501
11	0	0	0	0	502
12	0	0	0	0	512
13	0	0	0	0	523
14	0	0	0	0	518
15	0	0	0	0	510
0	0	0	0	0	524
1	0	0	0	0	519
2	0	0	0	0	527
3	0	0	0	0	532
4	0	0	0	0	532
5	0	0	0	0	535
6	0	0	0	0	541
7	0	0	0	0	542
8	0	0	0	0	563
9	0	0	0	0	561
10	0	0	0	0	560
11	0	0	0	0	567
12	0	0	0	0	548
13	0	0	0	0	525
14	0	0	0	0	494
15	0	0	0	0	472
0	0	0	0	0	454
1	0	0	0	0	452
2	0	0	0	0	460
3	0	0	0	0	461
4	0	0	0	0	462
5	0	0	0	0	466
6	0	0	0	0	483
7	0	0	0	0	477
8	0	0	0	0	482
9	0	0	0	0	488
10	0	0	0	0	486
11	0	0	0	0	491
12	0	0	0	0	496
13	0	0	0	0	498
14	0	0	0	0	497
15	0	0	0	0	502
0	0	0	0	0	508
1	0	0	0	0	502
2	0	0	0	0	505
3	0	0	0	0	510
4	0	0	0	0	514
5	0	0	0	0	515
6	0	0	0	0	514
7	0	0	0	0	531
8	0	0	0	0	527
9	0	0	0	0	538
10	0	0	0	0	549
11	0	0	0	0	540
12	0	0	0	0	539
13	0	0	0	0	533
14	0	0	0	0	507
15	0	0	0	0	496
0	0	0	0	0	504
1	0	0	0	0	499
2	0	0	0	0	504
3	0	0	0	0	507
4	0	0	0	0	506
5	0	0	0	0	500
6	0	0	0	0	462
7	0	0	0	0	570
8	0	0	0	0	805
9	0	0	0	0	743
10	0	0	0	0	307
11	0	0	0	0	352
12	0	0	0	0	456
13	0	0	0	0	494
14	0	0	0	0	498
15	0	0	0	0	504
0	0	0	0	0	515
1	0	0	0	0	512
2	0	0	0	0	520
3	0	0	0	0	523
4	0	0	0	0	524
5	0	0	0	0	527
6	0	0	0	0	530
7	0	0	0	0	521
8	0	0	0	0	529
9	0	0	0	0	521
10	0	0	0	0	539
11	0	0	0	0	539
12	0	0	0	0	552
13	0	0	0	0	562
14	0	0	0	0	568
15	0	0	0	0	565
0	0	0	0	0	580
1	0	0	0	0	577
2	0	0	0	0	564
3	0	0	0	0	526
4	0	0	0	0	497
5	0	0	0	0	476
6	0	0	0	0	460
7	0	0	0	0	449
8	0	0	0	0	455
9	0	0	0	0	464
10	0	0	0	0	464
11	0	0	0	0	474
12	0	0	0	0	480
13	0	0	0	0	483
14	0	0	0	0	479
15	0	0	0	0	483
0	0	0	0	0	496
1	0	0	0	0	495
2	0	0	0	0	496
3	0	0	0	0	499
4	0	0	0	0	501
5	0	0	0	0	505
6	0	0	0	0	502
7	0	0	0	0	508
8	0	0	0	0	506
9	0	0	0	0	509
10	0	0	0	0	521
11	0	0	0	0	524
12	0	0	0	0	524
13	0	0	0	0	523
14	0	0	0	0	546
15	0	0	0	0	550
0	0	0	0	0	537
1	0	0	0	0	538
2	0	0	0	0	521
3	0	0	0	0	505
4	0	0	0	0	492
5	0	0	0	0	496
6	0	0	0	0	495
7	0	0	0	0	502
8	0	0	0	0	508
9	0	0	0	0	509
10	0	0	0	0	492
11	0	0	0	0	480
12	0	0	0	0	619
13	0	0	0	0	871
14	0	0	0	0	621
15	0	0	0	0	281
0	0	0	0	0	357
1	0	0	0	0	470
2	0	0	0	0	503
3	0	0	0	0	511
4	0	0	0	0	507
5	0	0	0	0	511
6	0	0	0	0	510
7	0	0	0	0	516
8	0	0	0	0	520
9	0	0	0	0	531
10	0	0	0	0	529
11	0	0	0	0	544
12	0	0	0	0	524
13	0	0	0	0	535
14	0	0	0	0	528
15	0	0	0	0	536
0	0	0	0	0	542
1	0	0	0	0	556
2	0	0	0	0	560
3	0	0	0	0	580
4	0	0	0	0	579
5	0	0	0	0	577
6	0	0	0	0	566
7	0	0	0	0	549
8	0	0	0	0	519
9	0	0	0	0	482
10	0	0	0	0	458
11	0	0	0	0	453
12	0	0	0	0	453
13	0	0	0	0	449
14	0	0	0	0	463
15	0	0	0	0	465
0	0	0	0	0	466
1	0	0	0	0	473
2	0	0	0	0	480
3	0	0	0	0	487
4	0	0	0	0	478
5	0	0	0	0	486
6	0	0	0	0	494
7	0	0	0	0	497
8	0	0	0	0	497
9	0	0	0	0	509
10	0	0	0	0	503
11	0	0	0	0	508
12	0	0	0	0	505
13	0	0	0	0	514
14	0	0	0	0	508
15	0	0	0	0	517
0	0	0	0	0	512
1	0	0	0	0	513
2	0	0	0	0	512
3	0	0	0	0	530
4	0	0	0	0	539
5	0	0	0	0	533
6	0	0	0	0	539
7	0	0	0	0	537
8	0	0	0	0	536
9	0	0	0	0	519
10	0	0	0	0	507
11	0	0	0	0	497
12	0	0	0	0	499
13	0	0	0	0	502
14	0	0	0	0	497
15	0	0	0	0	498
0	0	0	0	0	499
1	0	0	0	0	474
2	0	0	0	0	475
3	0	0	0	0	679
4	0	0	0	0	894
5	0	0	0	0	502
6	0	0	0	0	277
7	0	0	0	0	372
8	0	0	0	0	480
9	0	0	0	0	495
10	0	0	0	0	510
11	0	0	0	0	508
12	0	0	0	0	504
13	0	0	0	0	518
14	0	0	0	0	526
15	0	0	0	0	516
0	0	0	0	0	524
1	0	0	0	0	529
2	0	0	0	0	528
3	0	0	0	0	533
4	0	0	0	0	520
5	0	0	0	0	533
6	0	0	0	0	536
7	0	0	0	0	536
8	0	0	0	0	554
9	0	0	0	0	563
10	0	0	0	0	568
11	0	0	0	0	581
12	0	0	0	0	575
13	0	0	0	0	561
14	0	0	0	0	548
15	0	0	0	0	518
0	0	0	0	0	481
1	0	0	0	0	461
2	0	0	0	0	453
3	0	0	0	0	450
4	0	0	0	0	450
5	0	0	0	0	461
6	0	0	0	0	468
7	0	0	0	0	457
8	0	0	0	0	478
9	0	0	0	0	486
10	0	0	0	0	484
11	0	0	0	0	486
12	0	0	0	0	484
13	0	0	0	0	495
14	0	0	0	0	493
15	0	0	0	0	495
0	0	0	0	0	505
1	0	0	0	0	504
2	0	0	0	0	511
3	0	0	0	0	508
4	0	0	0	0	512
5	0	0	0	0	508
6	0	0	0	0	509
7	0	0	0	0	519
8	0	0	0	0	529
9	0	0	0	0	526
10	0	0	0	0	537
11	0	0	0	0	533
12	0	0	0	0	543
13	0	0	0	0	532
14	0	0	0	0	524
15	0	0	0	0	503
0	0	0	0	0	496
1	0	0	0	0	491
2	0	0	0	0	492
3	0	0	0	0	496
4	0	0	0	0	497
5	0	0	0	0	503
6	0	0	0	0	491
7	0	0	0	0	455
8	0	0	0	0	579
9	0	0	0	0	855
10	0	0	0	0	735
11	0	0	0	0	299
12	0	0	0	0	329
13	0	0	0	0	451
14	0	0	0	0	489
15	0	0	0	0	503
0	0	0	0	0	508
1	0	0	0	0	508
2	0	0	0	0	511
3	0	0	0	0	518
4	0	0	0	0	522
5	0	0	0	0	519
6	0	0	0	0	514
7	0	0	0	0	532
8	0	0	0	0	528
9	0	0	0	0	532
10	0	0	0	0	526
11	0	0	0	0	537
12	0	0	0	0	541
13	0	0	0	0	547
14	0	0	0	0	564
15	0	0	0	0	571
0	0	0	0	0	574
1	0	0	0	0	575
2	0	0	0	0	574
3	0	0	0	0	559
4	0	0	0	0	526
5	0	0	0	0	496
6	0	0	0	0	465
7	0	0	0	0	448
8	0	0	0	0	442
9	0	0	0	0	448
10	0	0	0	0	454
11	0	0	0	0	461
12	0	0	0	0	460
13	0	0	0	0	473
14	0	0	0	0	477
15	0	0	0	0	485
0	0	0	0	0	478
1	0	0	0	0	486
2	0	0	0	0	487
3	0	0	0	0	489
4	0	0	0	0	494
5	0	0	0	0	506
6	0	0	0	0	496
7	0	0	0	0	507
8	0	0	0	0	510
9	0	0	0	0	515
10	0	0	0	0	508
11	0	0	0	0	515
12	0	0	0	0	510
13	0	0	0	0	513
14	0	0	0	0	515
15	0	0	0	0	525
0	0	0	0	0	518
1	0	0	0	0	531
2	0	0	0	0	533
3	0	0	0	0	528
4	0	0	0	0	549
5	0	0	0	0	551
6	0	0	0	0	543
7	0	0	0	0	525
8	0	0	0	0	494
9	0	0	0	0	488
10	0	0	0	0	497
11	0	0	0	0	492
12	0	0	0	0	504
13	0	0	0	0	508
14	0	0	0	0	501
15	0	0	0	0	476
0	0	0	0	0	450
1	0	0	0	0	612
2	0	0	0	0	898
3	0	0	0	0	647
4	0	0	0	0	278
5	0	0	0	0	344
6	0	0	0	0	454
7	0	0	0	0	490
8	0	0	0	0	501
9	0	0	0	0	506
10	0	0	0	0	511
11	0	0	0	0	523
12	0	0	0	0	524
13	0	0	0	0	520
14	0	0	0	0	527
15	0	0	0	0	531
0	0	0	0	0	522
1	0	0	0	0	527
2	0	0	0	0	526
3	0	0	0	0	534
4	0	0	0	0	542
5	0	0	0	0	548
6	0	0	0	0	559
7	0	0	0	0	560
8	0	0	0	0	575
9	0	0	0	0	573
10	0	0	0	0	585
11	0	0	0	0	586
12	0	0	0	0	556
13	0	0	0	0	526
14	0	0	0	0	487
15	0	0	0	0	465
0	0	0	0	0	455
1	0	0	0	0	435
2	0	0	0	0	444
3	0	0	0	0	454
4	0	0	0	0	458
5	0	0	0	0	466
6	0	0	0	0	473
7	0	0	0	0	472
8	0	0	0	0	477
9	0	0	0	0	478
10	0	0	0	0	484
11	0	0	0	0	485
12	0	0	0	0	497
13	0	0	0	0	501
14	0	0	0	0	496
15	0	0	0	0	494
0	0	0	0	0	495
1	0	0	0	0	499
2	0	0	0	0	514
3	0	0	0	0	503
4	0	0	0	0	502
5	0	0	0	0	508
6	0	0	0	0	509
7	0	0	0	0	505
8	0	0	0	0	515
9	0	0	0	0	515
10	0	0	0	0	514
11	0	0	0	0	523
12	0	0	0	0	524
13	0	0	0	0	542
14	0	0	0	0	543
15	0	0	0	0	542
0	0	0	0	0	543
1	0	0	0	0	524
2	0	0	0	0	512
3	0	0	0	0	500
4	0	0	0	0	500
5	0	0	0	0	502
6	0	0	0	0	499
7	0	0	0	0	498
8	0	0	0	0	500
9	0	0	0	0	513
10	0	0	0	0	447
11	0	0	0	0	543
12	0	0	0	0	800
13	0	0	0	0	804
14	0	0	0	0	323
15	0	0	0	0	307
0	0	0	0	0	409
1	0	0	0	0	493
2	0	0	0	0	513
3	0	0	0	0	524
4	0	0	0	0	534
5	0	0	0	0	531
6	0	0	0	0	533
7	0	0	0	0	535
8	0	0	0	0	535
9	0	0	0	0	535
10	0	0	0	0	535
11	0	0	0	0	538
12	0	0	0	0	545
13	0	0	0	0	548
14	0	0	0	0	554
15	0	0	0	0	568
0	0	0	0	0	564
1	0	0	0	0	568
2	0	0	0	0	579
3	0	0	0	0	583
4	0	0	0	0	591
5	0	0	0	0	598
6	0	0	0	0	583
7	0	0	0	0	550
8	0	0	0	0	508
9	0	0	0	0	482
10	0	0	0	0	465
11	0	0	0	0	450
12	0	0	0	0	458
13	0	0	0	0	463
14	0	0	0	0	470
15	0	0	0	0	470
0	0	0	0	0	474
1	0	0	0	0	487
2	0	0	0	0	494
3	0	0	0	0	495
4	0	0	0	0	480
5	0	0	0	0	502
6	0	0	0	0	507
7	0	0	0	0	502
8	0	0	0	0	499
9	0	0	0	0	502
10	0	0	0	0	497
11	0	0	0	0	510
12	0	0	0	0	508
13	0	0	0	0	511
14	0	0	0	0	511
15	0	0	0	0	511
0	0	0	0	0	513
1	0	0	0	0	515
2	0	0	0	0	517
3	0	0	0	0	509
4	0	0	0	0	522
5	0	0	0	0	536
6	0	0	0	0	539
7	0	0	0	0	537
8	0	0	0	0	530
9	0	0	0	0	529
10	0	0	0	0	498
11	0	0	0	0	490
12	0	0	0	0	490
13	0	0	0	0	490
14	0	0	0	0	483
15	0	0	0	0	492
0	0	0	0	0	500
1	0	0	0	0	496
2	0	0	0	0	442
3	0	0	0	0	499
4	0	0	0	0	745
5	0	0	0	0	835
6	0	0	0	0	356
7	0	0	0	0	297
8	0	0	0	0	398
9	0	0	0	0	485
10	0	0	0	0	489
11	0	0	0	0	488
12	0	0	0	0	501
13	0	0	0	0	500
14	0	0	0	0	508
15	0	0	0	0	514
0	0	0	0	0	510
1	0	0	0	0	520
2	0	0	0	0	518
3	0	0	0	0	514
4	0	0	0	0	518
5	0	0	0	0	519
6	0	0	0	0	528
7	0	0	0	0	531
8	0	0	0	0	537
9	0	0	0	0	551
10	0	0	0	0	551
11	0	0	0	0	566
12	0	0	0	0	566
13	0	0	0	0	574
14	0	0	0	0	555
15	0	0	0	0	525
0	0	0	0	0	486
1	0	0	0	0	458
2	0	0	0	0	440
3	0	0	0	0	433
4	0	0	0	0	440
5	0	0	0	0	437
6	0	0	0	0	447
7	0	0	0	0	455
8	0	0	0	0	460
9	0	0	0	0	469
10	0	0	0	0	461
11	0	0	0	0	473
12	0	0	0	0	480
13	0	0	0	0	475
14	0	0	0	0	480
15	0	0	0	0	475
0	0	0	0	0	488
1	0	0	0	0	479
2	0	0	0	0	480
3	0	0	0	0	487
4	0	0	0	0	486
5	0	0	0	0	489
6	0	0	0	0	494
7	0	0	0	0	494
8	0	0	0	0	500
9	0	0	0	0	502
10	0	0	0	0	491
11	0	0	0	0	492
12	0	0	0	0	504
13	0	0	0	0	499
14	0	0	0	0	499
15	0	0	0	0	504
0	0	0	0	0	514
1	0	0	0	0	506
2	0	0	0	0	519
3	0	0	0	0	518
4	0	0	0	0	527
5	0	0	0	0	521
6	0	0	0	0	526
7	0	0	0	0	523
8	0	0	0	0	516
9	0	0	0	0	497
10	0	0	0	0	480
11	0	0	0	0	483
12	0	0	0	0	489
13	0	0	0	0	493
14	0	0	0	0	489
15	0	0	0	0	492
0	0	0	0	0	468
1	0	0	0	0	454
2	0	0	0	0	612
3	0	0	0	0	853
4	0	0	0	0	630
5	0	0	0	0	287
6	0	0	0	0	358
7	0	0	0	0	460
8	0	0	0	0	487
9	0	0	0	0	492
10	0	0	0	0	505
11	0	0	0	0	504
12	0	0	0	0	507
13	0	0	0	0	512
14	0	0	0	0	515
15	0	0	0	0	517
0	0	0	0	0	524
1	0	0	0	0	522
2	0	0	0	0	536
3	0	0	0	0	523
4	0	0	0	0	522
5	0	0	0	0	535
6	0	0	0	0	540
7	0	0	0	0	545
8	0	0	0	0	552
9	0	0	0	0	564
10	0	0	0	0	571
11	0	0	0	0	574
12	0	0	0	0	572
13	0	0	0	0	560
14	0	0	0	0	527
15	0	0	0	0	501
0	0	0	0	0	468
1	0	0	0	0	452
2	0	0	0	0	452
3	0	0	0	0	450
4	0	0	0	0	457
5	0	0	0	0	466
6	0	0	0	0	483
7	0	0	0	0	482
8	0	0	0	0	486
9	0	0	0	0	488
10	0	0	0	0	488
11	0	0	0	0	494
12	0	0	0	0	492
13	0	0	0	0	499
14	0	0	0	0	496
15	0	0	0	0	506
0	0	0	0	0	507
1	0	0	0	0	509
2	0	0	0	0	507
3	0	0	0	0	510
4	0	0	0	0	516
5	0	0	0	0	511
6	0	0	0	0	503
7	0	0	0	0	521
8	0	0	0	0	515
9	0	0	0	0	515
10	0	0	0	0	520
11	0	0	0	0	517
12	0	0	0	0	518
13	0	0	0	0	520
14	0	0	0	0	518
15	0	0	0	0	530
0	0	0	0	0	519
1	0	0	0	0	525
2	0	0	0	0	525
3	0	0	0	0	521
4	0	0	0	0	520
5	0	0	0	0	524
6	0	0	0	0	524
7	0	0	0	0	529
8	0	0	0	0	531
9	0	0	0	0	545
10	0	0	0	0	551
11	0	0	0	0	541
12	0	0	0	0	550
13	0	0	0	0	537
14	0	0	0	0	511
15	0	0	0	0	508
0	0	0	0	0	508
1	0	0	0	0	508
2	0	0	0	0	506
3	0	0	0	0	507
4	0	0	0	0	513
5	0	0	0	0	519
6	0	0	0	0	459
7	0	0	0	0	500
8	0	0	0	0	730
9	0	0	0	0	875
10	0	0	0	0	443
11	0	0	0	0	318
12	0	0	0	0	412
13	0	0	0	0	492
14	0	0	0	0	497
15	0	0	0	0	507
0	0	0	0	0	512
1	0	0	0	0	517
2	0	0	0	0	518
3	0	0	0	0	526
4	0	0	0	0	528
5	0	0	0	0	529
6	0	0	0	0	521
7	0	0	0	0	530
8	0	0	0	0	529
9	0	0	0	0	532
10	0	0	0	0	539
11	0	0	0	0	544
12	0	0	0	0	543
13	0	0	0	0	551
14	0	0	0	0	567
15	0	0	0	0	574
0	0	0	0	0	579
1	0	0	0	0	580
2	0	0	0	0	577
3	0	0	0	0	565
4	0	0	0	0	523
5	0	0	0	0	491
6	0	0	0	0	472
7	0	0	0	0	457
8	0	0	0	0	455
9	0	0	0	0	459
10	0	0	0	0	467
11	0	0	0	0	473
12	0	0	0	0	479
13	0	0	0	0	480
14	0	0	0	0	493
15	0	0	0	0	491
0	0	0	0	0	497
1	0	0	0	0	492
2	0	0	0	0	499
3	0	0	0	0	497
4	0	0	0	0	504
5	0	0	0	0	498
6	0	0	0	0	512
7	0	0	0	0	508
8	0	0	0	0	514
9	0	0	0	0	509
10	0	0	0	0	513
11	0	0	0	0	518
12	0	0	0	0	518
13	0	0	0	0	520
14	0	0	0	0	520
15	0	0	0	0	518
0	0	0	0	0	524
1	0	0	0	0	518
2	0	0	0	0	521
3	0	0	0	0	521
4	0	0	0	0	519
5	0	0	0	0	520
6	0	0	0	0	519
7	0	0	0	0	523
8	0	0	0	0	520
9	0	0	0	0	521
10	0	0	0	0	514
11	0	0	0	0	522
12	0	0	0	0	521
13	0	0	0	0	519
14	0	0	0	0	525
15	0	0	0	0	527
0	0	0	0	0	521
1	0	0	0	0	523
2	0	0	0	0	524
3	0	0	0	0	526
4	0	0	0	0	520
5	0	0	0	0	522
6	0	0	0	0	526
7	0	0	0	0	524
8	0	0	0	0	522
9	0	0	0	0	537
10	0	0	0	0	520
11	0	0	0	0	521
12	0	0	0	0	547
13	0	0	0	0	546
14	0	0	0	0	531
15	0	0	0	0	554
0	0	0	0	0	524
1	0	0	0	0	506
2	0	0	0	0	503
3	0	0	0	0	504
4	0	0	0	0	503
5	0	0	0	0	494
6	0	0	0	0	503
7	0	0	0	0	501
8	0	0	0	0	477
9	0	0	0	0	446
10	0	0	0	0	578
11	0	0	0	0	844
12	0	0	0	0	699
13	0	0	0	0	319
14	0	0	0	0	353
15	0	0	0	0	453
0	0	0	0	0	484
1	0	0	0	0	499
2	0	0	0	0	499
3	0	0	0	0	508
4	0	0	0	0	512
5	0	0	0	0	516
6	0	0	0	0	515
7	0	0	0	0	512
8	0	0	0	0	522
9	0	0	0	0	523
10	0	0	0	0	519
11	0	0	0	0	521
12	0	0	0	0	532
13	0	0	0	0	535
14	0	0	0	0	538
15	0	0	0	0	543
0	0	0	0	0	553
1	0	0	0	0	568
2	0	0	0	0	569
3	0	0	0	0	581
4	0	0	0	0	575
5	0	0	0	0	573
6	0	0	0	0	547
7	0	0	0	0	509
8	0	0	0	0	484
9	0	0	0	0	464
10	0	0	0	0	451
11	0	0	0	0	445
12	0	0	0	0	457
13	0	0	0	0	455
14	0	0	0	0	462
15	0	0	0	0	473
0	0	0	0	0	465
1	0	0	0	0	484
2	0	0	0	0	481
3	0	0	0	0	491
4	0	0	0	0	490
5	0	0	0	0	495
6	0	0	0	0	493
7	0	0	0	0	502
8	0	0	0	0	498
9	0	0	0	0	500
10	0	0	0	0	507
11	0	0	0	0	512
12	0	0	0	0	507
13	0	0	0	0	514
14	0	0	0	0	506
15	0	0	0	0	515
0	0	0	0	0	512
1	0	0	0	0	512
2	0	0	0	0	512
3	0	0	0	0	514
4	0	0	0	0	519
5	0	0	0	0	517
6	0	0	0	0	510
7	0	0	0	0	516
8	0	0	0	0	518
9	0	0	0	0	519
10	0	0	0	0	517
11	0	0	0	0	515
12	0	0	0	0	521
13	0	0	0	0	524
14	0	0	0	0	519
15	0	0	0	0	521
0	0	0	0	0	504
1	0	0	0	0	520
2	0	0	0	0	515
3	0	0	0	0	521
4	0	0	0	0	516
5	0	0	0	0	530
6	0	0	0	0	524
7	0	0	0	0	536
8	0	0	0	0	545
9	0	0	0	0	537
10	0	0	0	0	530
11	0	0	0	0	511
12	0	0	0	0	500
13	0	0	0	0	505
14	0	0	0	0	508
15	0	0	0	0	500
0	0	0	0	0	492
1	0	0	0	0	508
2	0	0	0	0	499
3	0	0	0	0	461
4	0	0	0	0	470
5	0	0	0	0	667
6	0	0	0	0	883
7	0	0	0	0	523
8	0	0	0	0	293
9	0	0	0	0	385
10	0	0	0	0	460
11	0	0	0	0	488
12	0	0	0	0	490
13	0	0	0	0	503
14	0	0	0	0	511
15	0	0	0	0	521
0	0	0	0	0	510
1	0	0	0	0	521
2	0	0	0	0	514
3	0	0	0	0	516
4	0	0	0	0	525
5	0	0	0	0	527
6	0	0	0	0	523
7	0	0	0	0	537
8	0	0	0	0	529
9	0	0	0	0	542
10	0	0	0	0	541
11	0	0	0	0	547
12	0	0	0	0	560
13	0	0	0	0	574
14	0	0	0	0	569
15	0	0	0	0	573
0	0	0	0	0	554
1	0	0	0	0	535
2	0	0	0	0	491
3	0	0	0	0	471
4	0	0	0	0	455
5	0	0	0	0	445
6	0	0	0	0	451
7	0	0	0	0	470
8	0	0	0	0	457
9	0	0	0	0	465
10	0	0	0	0	465
11	0	0	0	0	475
12	0	0	0	0	481
13	0	0	0	0	486
14	0	0	0	0	484
15	0	0	0	0	495
0	0	0	0	0	490
1	0	0	0	0	496
2	0	0	0	0	489
3	0	0	0	0	496
4	0	0	0	0	503
5	0	0	0	0	505
6	0	0	0	0	499
7	0	0	0	0	511
8	0	0	0	0	499
9	0	0	0	0	510
10	0	0	0	0	507
11	0	0	0	0	523
12	0	0	0	0	517
13	0	0	0	0	504
14	0	0	0	0	509
15	0	0	0	0	506
0	0	0	0	0	509
1	0	0	0	0	511
2	0	0	0	0	499
3	0	0	0	0	515
4	0	0	0	0	512
5	0	0	0	0	518
6	0	0	0	0	514
7	0	0	0	0	514
8	0	0	0	0	517
9	0	0	0	0	515
10	0	0	0	0	496
11	0	0	0	0	523
12	0	0	0	0	527
13	0	0	0	0	527
14	0	0	0	0	544
15	0	0	0	0	540
0	0	0	0	0	532
1	0	0	0	0	534
2	0	0	0	0	523
3	0	0	0	0	503
4	0	0	0	0	491
5	0	0	0	0	492
6	0	0	0	0	503
7	0	0	0	0	503
8	0	0	0	0	495
9	0	0	0	0	497
10	0	0	0	0	459
11	0	0	0	0	491
12	0	0	0	0	713
13	0	0	0	0	902
14	0	0	0	0	443
15	0	0	0	0	286
0	0	0	0	0	403
1	0	0	0	0	472
2	0	0	0	0	479
3	0	0	0	0	499
4	0	0	0	0	502
5	0	0	0	0	513
6	0	0	0	0	512
7	0	0	0	0	508
8	0	0	0	0	508
9	0	0	0	0	519
10	0	0	0	0	506
11	0	0	0	0	524
12	0	0	0	0	534
13	0	0	0	0	532
14	0	0	0	0	527
15	0	0	0	0	534
0	0	0	0	0	535
1	0	0	0	0	539
2	0	0	0	0	551
3	0	0	0	0	564
4	0	0	0	0	563
5	0	0	0	0	582
6	0	0	0	0	579
7	0	0	0	0	563
8	0	0	0	0	536
9	0	0	0	0	494
10	0	0	0	0	465
11	0	0	0	0	448
12	0	0	0	0	460
13	0	0	0	0	447
14	0	0	0	0	452
15	0	0	0	0	461
0	0	0	0	0	469
1	0	0	0	0	478
2	0	0	0	0	476
3	0	0	0	0	479
4	0	0	0	0	512
5	0	0	0	0	505
6	0	0	0	0	497
7	0	0	0	0	502
8	0	0	0	0	500
9	0	0	0	0	496
10	0	0	0	0	503
11	0	0	0	0	499
12	0	0	0	0	499
13	0	0	0	0	499
14	0	0	0	0	510
15	0	0	0	0	518
0	0	0	0	0	506
1	0	0	0	0	521
2	0	0	0	0	497
3	0	0	0	0	516
4	0	0	0	0	514
5	0	0	0	0	504
6	0	0	0	0	518
7	0	0	0	0	507
8	0	0	0	0	507
9	0	0	0	0	512
10	0	0	0	0	524
11	0	0	0	0	517
12	0	0	0	0	522
13	0	0	0	0	511
14	0	0	0	0	511
15	0	0	0	0	525
0	0	0	0	0	521
1	0	0	0	0	523
2	0	0	0	0	539
3	0	0	0	0	547
4	0	0	0	0	537
5	0	0	0	0	531
6	0	0	0	0	527
7	0	0	0	0	508
8	0	0	0	0	500
9	0	0	0	0	507
10	0	0	0	0	492
11	0	0	0	0	490
12	0	0	0	0	492
13	0	0	0	0	496
14	0	0	0	0	497
15	0	0	0	0	451
