# OpenSignals Text File Format
# {"CC:78:AB:62:C7:8F":{"sensor":["RAW"],"device name":"CC:78:AB:62:C7:8F","column":["nSeq","I1","I2","O1","O2","A2"],"sync interval":2,"time":"13:14:21","comments":"","device connection":"BLECC:78:AB:62:C7:8F","channels":[2],"date":"2022-04-28","mode":0,"digital IO":[0,0,1,1],"firmware version":0,"device":"bitalino_rev","position":0,"sampling rate":100,"label":["A2"],"resolution":[10],"special":[{}]}}
# EndOfHeader
0	0	0	0	0	516
1	0	0	0	0	524
2	0	0	0	0	517
3	0	0	0	0	515
4	0	0	0	0	515
5	0	0	0	0	527
6	0	0	0	0	535
7	0	0	0	0	532
8	0	0	0	0	531
9	0	0	0	0	533
10	0	0	0	0	542
11	0	0	0	0	544
12	0	0	0	0	552
13	0	0	0	0	562
14	0	0	0	0	578
15	0	0	0	0	585
0	0	0	0	0	588
1	0	0	0	0	573
2	0	0	0	0	545
3	0	0	0	0	510
4	0	0	0	0	471
5	0	0	0	0	451
6	0	0	0	0	440
7	0	0	0	0	434
8	0	0	0	0	448
9	0	0	0	0	457
10	0	0	0	0	455
11	0	0	0	0	462
12	0	0	0	0	469
13	0	0	0	0	482
14	0	0	0	0	483
15	0	0	0	0	490
0	0	0	0	0	481
1	0	0	0	0	480
2	0	0	0	0	502
3	0	0	0	0	510
4	0	0	0	0	496
5	0	0	0	0	503
6	0	0	0	0	507
7	0	0	0	0	504
8	0	0	0	0	504
9	0	0	0	0	512
10	0	0	0	0	513
11	0	0	0	0	509
12	0	0	0	0	509
13	0	0	0	0	511
14	0	0	0	0	516
15	0	0	0	0	516
0	0	0	0	0	517
1	0	0	0	0	517
2	0	0	0	0	526
3	0	0	0	0	519
4	0	0	0	0	526
5	0	0	0	0	535
6	0	0	0	0	546
7	0	0	0	0	535
8	0	0	0	0	538
9	0	0	0	0	536
10	0	0	0	0	516
11	0	0	0	0	495
12	0	0	0	0	503
13	0	0	0	0	501
14	0	0	0	0	496
15	0	0	0	0	497
0	0	0	0	0	504
1	0	0	0	0	499
2	0	0	0	0	455
3	0	0	0	0	536
4	0	0	0	0	812
5	0	0	0	0	865
6	0	0	0	0	343
7	0	0	0	0	319
8	0	0	0	0	426
9	0	0	0	0	478
10	0	0	0	0	485
11	0	0	0	0	498
12	0	0	0	0	499
13	0	0	0	0	514
14	0	0	0	0	509
15	0	0	0	0	513
0	0	0	0	0	514
1	0	0	0	0	521
2	0	0	0	0	523
3	0	0	0	0	525
4	0	0	0	0	522
5	0	0	0	0	529
6	0	0	0	0	534
7	0	0	0	0	543
8	0	0	0	0	543
9	0	0	0	0	551
10	0	0	0	0	565
11	0	0	0	0	577
12	0	0	0	0	583
13	0	0	0	0	585
14	0	0	0	0	575
15	0	0	0	0	551
0	0	0	0	0	504
1	0	0	0	0	479
2	0	0	0	0	457
3	0	0	0	0	445
4	0	0	0	0	440
5	0	0	0	0	450
6	0	0	0	0	451
7	0	0	0	0	459
8	0	0	0	0	463
9	0	0	0	0	469
10	0	0	0	0	474
11	0	0	0	0	476
12	0	0	0	0	494
13	0	0	0	0	485
14	0	0	0	0	490
15	0	0	0	0	489
0	0	0	0	0	500
1	0	0	0	0	504
2	0	0	0	0	498
3	0	0	0	0	506
4	0	0	0	0	499
5	0	0	0	0	503
6	0	0	0	0	511
7	0	0	0	0	503
8	0	0	0	0	514
9	0	0	0	0	511
10	0	0	0	0	519
11	0	0	0	0	508
12	0	0	0	0	511
13	0	0	0	0	518
14	0	0	0	0	515
15	0	0	0	0	521
0	0	0	0	0	521
1	0	0	0	0	512
2	0	0	0	0	517
3	0	0	0	0	522
4	0	0	0	0	523
5	0	0	0	0	529
6	0	0	0	0	531
7	0	0	0	0	537
8	0	0	0	0	552
9	0	0	0	0	541
10	0	0	0	0	547
11	0	0	0	0	536
12	0	0	0	0	512
13	0	0	0	0	496
14	0	0	0	0	499
15	0	0	0	0	497
0	0	0	0	0	499
1	0	0	0	0	501
2	0	0	0	0	497
3	0	0	0	0	500
4	0	0	0	0	457
5	0	0	0	0	547
6	0	0	0	0	840
7	0	0	0	0	854
8	0	0	0	0	330
9	0	0	0	0	318
10	0	0	0	0	426
11	0	0	0	0	475
12	0	0	0	0	489
13	0	0	0	0	500
14	0	0	0	0	510
15	0	0	0	0	507
0	0	0	0	0	517
1	0	0	0	0	516
2	0	0	0	0	518
3	0	0	0	0	523
4	0	0	0	0	523
5	0	0	0	0	529
6	0	0	0	0	528
7	0	0	0	0	536
8	0	0	0	0	538
9	0	0	0	0	540
10	0	0	0	0	554
11	0	0	0	0	558
12	0	0	0	0	571
13	0	0	0	0	582
14	0	0	0	0	588
15	0	0	0	0	586
0	0	0	0	0	581
1	0	0	0	0	555
2	0	0	0	0	519
3	0	0	0	0	488
4	0	0	0	0	460
5	0	0	0	0	454
6	0	0	0	0	446
7	0	0	0	0	446
8	0	0	0	0	459
9	0	0	0	0	457
10	0	0	0	0	467
11	0	0	0	0	479
12	0	0	0	0	482
13	0	0	0	0	491
14	0	0	0	0	494
15	0	0	0	0	495
0	0	0	0	0	487
1	0	0	0	0	499
2	0	0	0	0	491
3	0	0	0	0	505
4	0	0	0	0	508
5	0	0	0	0	508
6	0	0	0	0	506
7	0	0	0	0	512
8	0	0	0	0	508
9	0	0	0	0	512
10	0	0	0	0	517
11	0	0	0	0	512
12	0	0	0	0	516
13	0	0	0	0	515
14	0	0	0	0	515
15	0	0	0	0	517
0	0	0	0	0	525
1	0	0	0	0	511
2	0	0	0	0	527
3	0	0	0	0	517
4	0	0	0	0	519
5	0	0	0	0	515
6	0	0	0	0	521
7	0	0	0	0	520
8	0	0	0	0	511
9	0	0	0	0	526
10	0	0	0	0	526
11	0	0	0	0	530
12	0	0	0	0	536
13	0	0	0	0	549
14	0	0	0	0	542
15	0	0	0	0	546
0	0	0	0	0	530
1	0	0	0	0	518
2	0	0	0	0	499
3	0	0	0	0	493
4	0	0	0	0	491
5	0	0	0	0	483
6	0	0	0	0	488
7	0	0	0	0	503
8	0	0	0	0	500
9	0	0	0	0	446
10	0	0	0	0	499
11	0	0	0	0	766
12	0	0	0	0	896
13	0	0	0	0	379
14	0	0	0	0	284
15	0	0	0	0	385
0	0	0	0	0	470
1	0	0	0	0	482
2	0	0	0	0	499
3	0	0	0	0	498
4	0	0	0	0	509
5	0	0	0	0	510
6	0	0	0	0	510
7	0	0	0	0	513
8	0	0	0	0	516
9	0	0	0	0	519
10	0	0	0	0	515
11	0	0	0	0	525
12	0	0	0	0	525
13	0	0	0	0	528
14	0	0	0	0	539
15	0	0	0	0	545
0	0	0	0	0	552
1	0	0	0	0	564
2	0	0	0	0	574
3	0	0	0	0	575
4	0	0	0	0	588
5	0	0	0	0	579
6	0	0	0	0	553
7	0	0	0	0	520
8	0	0	0	0	475
9	0	0	0	0	453
10	0	0	0	0	431
11	0	0	0	0	439
12	0	0	0	0	429
13	0	0	0	0	442
14	0	0	0	0	443
15	0	0	0	0	451
0	0	0	0	0	459
1	0	0	0	0	473
2	0	0	0	0	471
3	0	0	0	0	484
4	0	0	0	0	482
5	0	0	0	0	480
6	0	0	0	0	484
7	0	0	0	0	494
8	0	0	0	0	487
9	0	0	0	0	490
10	0	0	0	0	496
11	0	0	0	0	505
12	0	0	0	0	504
13	0	0	0	0	504
14	0	0	0	0	502
15	0	0	0	0	512
0	0	0	0	0	507
1	0	0	0	0	505
2	0	0	0	0	514
3	0	0	0	0	511
4	0	0	0	0	520
5	0	0	0	0	512
6	0	0	0	0	513
7	0	0	0	0	511
8	0	0	0	0	515
9	0	0	0	0	519
10	0	0	0	0	516
11	0	0	0	0	521
12	0	0	0	0	531
13	0	0	0	0	547
14	0	0	0	0	535
15	0	0	0	0	542
0	0	0	0	0	536
1	0	0	0	0	509
2	0	0	0	0	504
3	0	0	0	0	488
4	0	0	0	0	491
5	0	0	0	0	493
6	0	0	0	0	497
7	0	0	0	0	499
8	0	0	0	0	497
9	0	0	0	0	454
10	0	0	0	0	502
11	0	0	0	0	760
12	0	0	0	0	890
13	0	0	0	0	379
14	0	0	0	0	293
15	0	0	0	0	392
0	0	0	0	0	470
1	0	0	0	0	492
2	0	0	0	0	500
3	0	0	0	0	508
4	0	0	0	0	510
5	0	0	0	0	520
6	0	0	0	0	519
7	0	0	0	0	521
8	0	0	0	0	513
9	0	0	0	0	524
10	0	0	0	0	531
11	0	0	0	0	532
12	0	0	0	0	527
13	0	0	0	0	538
14	0	0	0	0	537
15	0	0	0	0	550
0	0	0	0	0	558
1	0	0	0	0	565
2	0	0	0	0	576
3	0	0	0	0	588
4	0	0	0	0	592
5	0	0	0	0	583
6	0	0	0	0	557
7	0	0	0	0	516
8	0	0	0	0	478
9	0	0	0	0	455
10	0	0	0	0	439
11	0	0	0	0	434
12	0	0	0	0	445
13	0	0	0	0	448
14	0	0	0	0	453
15	0	0	0	0	465
0	0	0	0	0	471
1	0	0	0	0	472
2	0	0	0	0	478
3	0	0	0	0	478
4	0	0	0	0	491
5	0	0	0	0	487
6	0	0	0	0	495
7	0	0	0	0	495
8	0	0	0	0	503
9	0	0	0	0	503
10	0	0	0	0	503
11	0	0	0	0	505
12	0	0	0	0	503
13	0	0	0	0	509
14	0	0	0	0	502
15	0	0	0	0	511
0	0	0	0	0	509
1	0	0	0	0	509
2	0	0	0	0	523
3	0	0	0	0	512
4	0	0	0	0	515
5	0	0	0	0	515
6	0	0	0	0	512
7	0	0	0	0	515
8	0	0	0	0	524
9	0	0	0	0	507
10	0	0	0	0	526
11	0	0	0	0	524
12	0	0	0	0	520
13	0	0	0	0	535
14	0	0	0	0	531
15	0	0	0	0	527
0	0	0	0	0	545
1	0	0	0	0	530
2	0	0	0	0	547
3	0	0	0	0	539
4	0	0	0	0	516
5	0	0	0	0	504
6	0	0	0	0	494
7	0	0	0	0	498
8	0	0	0	0	498
9	0	0	0	0	495
10	0	0	0	0	497
11	0	0	0	0	496
12	0	0	0	0	452
13	0	0	0	0	507
14	0	0	0	0	763
15	0	0	0	0	919
0	0	0	0	0	406
1	0	0	0	0	288
2	0	0	0	0	393
3	0	0	0	0	463
4	0	0	0	0	487
5	0	0	0	0	498
6	0	0	0	0	503
7	0	0	0	0	508
8	0	0	0	0	509
9	0	0	0	0	507
10	0	0	0	0	519
11	0	0	0	0	519
12	0	0	0	0	516
13	0	0	0	0	526
14	0	0	0	0	531
15	0	0	0	0	534
0	0	0	0	0	527
1	0	0	0	0	532
2	0	0	0	0	542
3	0	0	0	0	549
4	0	0	0	0	560
5	0	0	0	0	571
6	0	0	0	0	580
7	0	0	0	0	585
8	0	0	0	0	579
9	0	0	0	0	577
10	0	0	0	0	524
11	0	0	0	0	492
12	0	0	0	0	461
13	0	0	0	0	445
14	0	0	0	0	439
15	0	0	0	0	441
0	0	0	0	0	447
1	0	0	0	0	455
2	0	0	0	0	462
3	0	0	0	0	466
4	0	0	0	0	478
5	0	0	0	0	481
6	0	0	0	0	487
7	0	0	0	0	485
8	0	0	0	0	492
9	0	0	0	0	496
10	0	0	0	0	497
11	0	0	0	0	499
12	0	0	0	0	503
13	0	0	0	0	505
14	0	0	0	0	505
15	0	0	0	0	504
0	0	0	0	0	512
1	0	0	0	0	509
2	0	0	0	0	514
3	0	0	0	0	512
4	0	0	0	0	516
5	0	0	0	0	512
6	0	0	0	0	516
7	0	0	0	0	516
8	0	0	0	0	505
9	0	0	0	0	523
10	0	0	0	0	520
11	0	0	0	0	523
12	0	0	0	0	515
13	0	0	0	0	517
14	0	0	0	0	519
15	0	0	0	0	519
0	0	0	0	0	515
1	0	0	0	0	518
2	0	0	0	0	513
3	0	0	0	0	527
4	0	0	0	0	532
5	0	0	0	0	535
6	0	0	0	0	543
7	0	0	0	0	544
8	0	0	0	0	535
9	0	0	0	0	542
10	0	0	0	0	530
11	0	0	0	0	514
12	0	0	0	0	499
13	0	0	0	0	500
14	0	0	0	0	495
15	0	0	0	0	496
0	0	0	0	0	501
1	0	0	0	0	497
2	0	0	0	0	503
3	0	0	0	0	455
4	0	0	0	0	547
5	0	0	0	0	845
6	0	0	0	0	842
7	0	0	0	0	316
8	0	0	0	0	302
9	0	0	0	0	410
10	0	0	0	0	501
11	0	0	0	0	505
12	0	0	0	0	508
13	0	0	0	0	517
14	0	0	0	0	521
15	0	0	0	0	514
0	0	0	0	0	524
1	0	0	0	0	543
2	0	0	0	0	533
3	0	0	0	0	544
4	0	0	0	0	536
5	0	0	0	0	540
6	0	0	0	0	547
7	0	0	0	0	540
8	0	0	0	0	546
9	0	0	0	0	572
10	0	0	0	0	576
11	0	0	0	0	583
12	0	0	0	0	590
13	0	0	0	0	598
14	0	0	0	0	590
15	0	0	0	0	609
0	0	0	0	0	573
1	0	0	0	0	528
2	0	0	0	0	493
3	0	0	0	0	464
4	0	0	0	0	440
5	0	0	0	0	451
6	0	0	0	0	447
7	0	0	0	0	470
8	0	0	0	0	477
9	0	0	0	0	464
10	0	0	0	0	487
11	0	0	0	0	472
12	0	0	0	0	490
13	0	0	0	0	474
14	0	0	0	0	508
15	0	0	0	0	497
0	0	0	0	0	496
1	0	0	0	0	508
2	0	0	0	0	514
3	0	0	0	0	518
4	0	0	0	0	480
5	0	0	0	0	522
6	0	0	0	0	497
7	0	0	0	0	509
8	0	0	0	0	513
9	0	0	0	0	530
10	0	0	0	0	521
11	0	0	0	0	534
12	0	0	0	0	515
13	0	0	0	0	519
14	0	0	0	0	526
15	0	0	0	0	531
0	0	0	0	0	508
1	0	0	0	0	526
2	0	0	0	0	551
3	0	0	0	0	504
4	0	0	0	0	533
5	0	0	0	0	544
6	0	0	0	0	535
7	0	0	0	0	537
8	0	0	0	0	547
9	0	0	0	0	531
10	0	0	0	0	503
11	0	0	0	0	508
12	0	0	0	0	486
13	0	0	0	0	484
14	0	0	0	0	490
15	0	0	0	0	463
0	0	0	0	0	518
1	0	0	0	0	458
2	0	0	0	0	440
3	0	0	0	0	579
4	0	0	0	0	846
5	0	0	0	0	716
6	0	0	0	0	270
7	0	0	0	0	318
8	0	0	0	0	412
9	0	0	0	0	433
10	0	0	0	0	455
11	0	0	0	0	488
12	0	0	0	0	482
13	0	0	0	0	488
14	0	0	0	0	504
15	0	0	0	0	504
0	0	0	0	0	550
1	0	0	0	0	508
2	0	0	0	0	480
3	0	0	0	0	499
4	0	0	0	0	482
5	0	0	0	0	508
6	0	0	0	0	555
7	0	0	0	0	540
8	0	0	0	0	563
9	0	0	0	0	518
10	0	0	0	0	574
11	0	0	0	0	552
12	0	0	0	0	590
13	0	0	0	0	533
14	0	0	0	0	577
15	0	0	0	0	545
0	0	0	0	0	499
1	0	0	0	0	450
2	0	0	0	0	404
3	0	0	0	0	439
4	0	0	0	0	440
5	0	0	0	0	443
6	0	0	0	0	470
7	0	0	0	0	435
8	0	0	0	0	444
9	0	0	0	0	479
10	0	0	0	0	464
11	0	0	0	0	476
12	0	0	0	0	472
13	0	0	0	0	474
14	0	0	0	0	487
15	0	0	0	0	476
0	0	0	0	0	492
1	0	0	0	0	487
2	0	0	0	0	520
3	0	0	0	0	493
4	0	0	0	0	472
5	0	0	0	0	543
6	0	0	0	0	559
7	0	0	0	0	496
8	0	0	0	0	497
9	0	0	0	0	504
10	0	0	0	0	519
11	0	0	0	0	527
12	0	0	0	0	529
13	0	0	0	0	467
14	0	0	0	0	529
15	0	0	0	0	507
0	0	0	0	0	522
1	0	0	0	0	526
2	0	0	0	0	524
3	0	0	0	0	503
4	0	0	0	0	515
5	0	0	0	0	529
6	0	0	0	0	519
7	0	0	0	0	515
8	0	0	0	0	555
9	0	0	0	0	529
10	0	0	0	0	528
11	0	0	0	0	508
12	0	0	0	0	496
13	0	0	0	0	465
14	0	0	0	0	474
15	0	0	0	0	510
0	0	0	0	0	491
1	0	0	0	0	484
2	0	0	0	0	505
3	0	0	0	0	434
4	0	0	0	0	474
5	0	0	0	0	650
6	0	0	0	0	929
7	0	0	0	0	671
8	0	0	0	0	297
9	0	0	0	0	381
10	0	0	0	0	420
11	0	0	0	0	486
12	0	0	0	0	465
13	0	0	0	0	510
14	0	0	0	0	526
15	0	0	0	0	484
0	0	0	0	0	532
1	0	0	0	0	547
2	0	0	0	0	517
3	0	0	0	0	546
4	0	0	0	0	482
5	0	0	0	0	551
6	0	0	0	0	563
7	0	0	0	0	522
8	0	0	0	0	571
9	0	0	0	0	557
10	0	0	0	0	578
11	0	0	0	0	592
12	0	0	0	0	566
13	0	0	0	0	588
14	0	0	0	0	596
15	0	0	0	0	595
0	0	0	0	0	584
1	0	0	0	0	503
2	0	0	0	0	509
3	0	0	0	0	504
4	0	0	0	0	467
5	0	0	0	0	461
6	0	0	0	0	451
7	0	0	0	0	468
8	0	0	0	0	474
9	0	0	0	0	475
10	0	0	0	0	479
11	0	0	0	0	469
12	0	0	0	0	510
13	0	0	0	0	499
14	0	0	0	0	456
15	0	0	0	0	476
0	0	0	0	0	513
1	0	0	0	0	497
2	0	0	0	0	510
3	0	0	0	0	532
4	0	0	0	0	522
5	0	0	0	0	522
6	0	0	0	0	510
7	0	0	0	0	527
8	0	0	0	0	519
9	0	0	0	0	527
10	0	0	0	0	541
11	0	0	0	0	502
12	0	0	0	0	545
13	0	0	0	0	539
14	0	0	0	0	531
15	0	0	0	0	495
0	0	0	0	0	531
1	0	0	0	0	537
2	0	0	0	0	536
3	0	0	0	0	558
4	0	0	0	0	508
5	0	0	0	0	542
6	0	0	0	0	530
7	0	0	0	0	542
8	0	0	0	0	547
9	0	0	0	0	538
10	0	0	0	0	504
11	0	0	0	0	553
12	0	0	0	0	553
13	0	0	0	0	552
14	0	0	0	0	566
15	0	0	0	0	543
0	0	0	0	0	559
1	0	0	0	0	560
2	0	0	0	0	575
3	0	0	0	0	585
4	0	0	0	0	559
5	0	0	0	0	521
6	0	0	0	0	515
7	0	0	0	0	502
8	0	0	0	0	524
9	0	0	0	0	507
10	0	0	0	0	518
11	0	0	0	0	505
12	0	0	0	0	513
13	0	0	0	0	471
14	0	0	0	0	547
15	0	0	0	0	818
0	0	0	0	0	860
1	0	0	0	0	338
2	0	0	0	0	312
3	0	0	0	0	414
4	0	0	0	0	472
5	0	0	0	0	493
6	0	0	0	0	518
7	0	0	0	0	498
8	0	0	0	0	516
9	0	0	0	0	543
10	0	0	0	0	519
11	0	0	0	0	515
12	0	0	0	0	519
13	0	0	0	0	519
14	0	0	0	0	527
15	0	0	0	0	519
0	0	0	0	0	533
1	0	0	0	0	527
2	0	0	0	0	552
3	0	0	0	0	543
4	0	0	0	0	548
5	0	0	0	0	559
6	0	0	0	0	586
7	0	0	0	0	586
8	0	0	0	0	585
9	0	0	0	0	582
10	0	0	0	0	542
11	0	0	0	0	510
12	0	0	0	0	469
13	0	0	0	0	437
14	0	0	0	0	430
15	0	0	0	0	413
0	0	0	0	0	421
1	0	0	0	0	432
2	0	0	0	0	436
3	0	0	0	0	437
4	0	0	0	0	449
5	0	0	0	0	451
6	0	0	0	0	457
7	0	0	0	0	463
8	0	0	0	0	471
9	0	0	0	0	469
10	0	0	0	0	479
11	0	0	0	0	481
12	0	0	0	0	479
13	0	0	0	0	479
14	0	0	0	0	487
15	0	0	0	0	486
0	0	0	0	0	497
1	0	0	0	0	501
2	0	0	0	0	506
3	0	0	0	0	504
4	0	0	0	0	491
5	0	0	0	0	481
6	0	0	0	0	487
7	0	0	0	0	495
8	0	0	0	0	502
9	0	0	0	0	498
10	0	0	0	0	520
11	0	0	0	0	497
12	0	0	0	0	504
13	0	0	0	0	520
14	0	0	0	0	524
15	0	0	0	0	523
0	0	0	0	0	521
1	0	0	0	0	511
2	0	0	0	0	492
3	0	0	0	0	474
4	0	0	0	0	490
5	0	0	0	0	474
6	0	0	0	0	487
7	0	0	0	0	480
8	0	0	0	0	481
9	0	0	0	0	495
10	0	0	0	0	442
11	0	0	0	0	518
12	0	0	0	0	757
13	0	0	0	0	862
14	0	0	0	0	351
15	0	0	0	0	268
0	0	0	0	0	371
1	0	0	0	0	476
2	0	0	0	0	497
3	0	0	0	0	491
4	0	0	0	0	480
5	0	0	0	0	506
6	0	0	0	0	510
7	0	0	0	0	511
8	0	0	0	0	519
9	0	0	0	0	523
10	0	0	0	0	521
11	0	0	0	0	515
12	0	0	0	0	515
13	0	0	0	0	523
14	0	0	0	0	529
15	0	0	0	0	537
0	0	0	0	0	540
1	0	0	0	0	550
2	0	0	0	0	552
3	0	0	0	0	576
4	0	0	0	0	582
5	0	0	0	0	585
6	0	0	0	0	574
7	0	0	0	0	547
8	0	0	0	0	499
9	0	0	0	0	480
10	0	0	0	0	460
11	0	0	0	0	446
12	0	0	0	0	422
13	0	0	0	0	443
14	0	0	0	0	454
15	0	0	0	0	455
0	0	0	0	0	461
1	0	0	0	0	461
2	0	0	0	0	481
3	0	0	0	0	478
4	0	0	0	0	482
5	0	0	0	0	494
6	0	0	0	0	505
7	0	0	0	0	488
8	0	0	0	0	504
9	0	0	0	0	497
10	0	0	0	0	504
11	0	0	0	0	502
12	0	0	0	0	514
13	0	0	0	0	516
14	0	0	0	0	520
15	0	0	0	0	527
0	0	0	0	0	507
1	0	0	0	0	527
2	0	0	0	0	519
3	0	0	0	0	525
4	0	0	0	0	534
5	0	0	0	0	542
6	0	0	0	0	539
7	0	0	0	0	546
8	0	0	0	0	550
9	0	0	0	0	568
10	0	0	0	0	574
11	0	0	0	0	570
12	0	0	0	0	557
13	0	0	0	0	544
14	0	0	0	0	542
15	0	0	0	0	529
0	0	0	0	0	515
1	0	0	0	0	527
2	0	0	0	0	519
3	0	0	0	0	534
4	0	0	0	0	543
5	0	0	0	0	507
6	0	0	0	0	494
7	0	0	0	0	683
8	0	0	0	0	940
9	0	0	0	0	664
10	0	0	0	0	315
11	0	0	0	0	387
12	0	0	0	0	467
13	0	0	0	0	500
14	0	0	0	0	509
15	0	0	0	0	512
0	0	0	0	0	518
1	0	0	0	0	513
2	0	0	0	0	520
3	0	0	0	0	524
4	0	0	0	0	519
5	0	0	0	0	521
6	0	0	0	0	517
7	0	0	0	0	515
8	0	0	0	0	524
9	0	0	0	0	522
10	0	0	0	0	519
11	0	0	0	0	522
12	0	0	0	0	531
13	0	0	0	0	548
14	0	0	0	0	533
15	0	0	0	0	542
0	0	0	0	0	552
1	0	0	0	0	556
2	0	0	0	0	540
3	0	0	0	0	501
4	0	0	0	0	468
5	0	0	0	0	430
6	0	0	0	0	412
7	0	0	0	0	393
8	0	0	0	0	402
9	0	0	0	0	406
10	0	0	0	0	416
11	0	0	0	0	419
12	0	0	0	0	431
13	0	0	0	0	426
14	0	0	0	0	435
15	0	0	0	0	454
0	0	0	0	0	448
1	0	0	0	0	439
2	0	0	0	0	447
3	0	0	0	0	448
4	0	0	0	0	464
5	0	0	0	0	463
6	0	0	0	0	459
7	0	0	0	0	455
8	0	0	0	0	462
9	0	0	0	0	464
10	0	0	0	0	464
11	0	0	0	0	473
12	0	0	0	0	464
13	0	0	0	0	481
14	0	0	0	0	478
15	0	0	0	0	486
0	0	0	0	0	492
1	0	0	0	0	496
2	0	0	0	0	500
3	0	0	0	0	508
4	0	0	0	0	520
5	0	0	0	0	521
6	0	0	0	0	512
7	0	0	0	0	515
8	0	0	0	0	489
9	0	0	0	0	492
10	0	0	0	0	476
11	0	0	0	0	481
12	0	0	0	0	483
13	0	0	0	0	488
14	0	0	0	0	483
15	0	0	0	0	484
0	0	0	0	0	467
1	0	0	0	0	454
2	0	0	0	0	620
3	0	0	0	0	897
4	0	0	0	0	689
5	0	0	0	0	283
6	0	0	0	0	333
7	0	0	0	0	436
8	0	0	0	0	480
9	0	0	0	0	486
10	0	0	0	0	495
11	0	0	0	0	502
12	0	0	0	0	511
13	0	0	0	0	507
14	0	0	0	0	519
15	0	0	0	0	524
0	0	0	0	0	520
1	0	0	0	0	521
2	0	0	0	0	530
3	0	0	0	0	542
4	0	0	0	0	538
5	0	0	0	0	533
6	0	0	0	0	551
7	0	0	0	0	563
8	0	0	0	0	571
9	0	0	0	0	576
10	0	0	0	0	575
11	0	0	0	0	595
12	0	0	0	0	596
13	0	0	0	0	585
14	0	0	0	0	545
15	0	0	0	0	508
0	0	0	0	0	479
1	0	0	0	0	455
2	0	0	0	0	458
3	0	0	0	0	462
4	0	0	0	0	458
5	0	0	0	0	460
6	0	0	0	0	465
7	0	0	0	0	472
8	0	0	0	0	484
9	0	0	0	0	491
10	0	0	0	0	495
11	0	0	0	0	499
12	0	0	0	0	487
13	0	0	0	0	497
14	0	0	0	0	501
15	0	0	0	0	508
0	0	0	0	0	504
1	0	0	0	0	515
2	0	0	0	0	510
3	0	0	0	0	511
4	0	0	0	0	507
5	0	0	0	0	508
6	0	0	0	0	520
7	0	0	0	0	524
8	0	0	0	0	519
9	0	0	0	0	519
10	0	0	0	0	521
11	0	0	0	0	533
12	0	0	0	0	527
13	0	0	0	0	523
14	0	0	0	0	523
15	0	0	0	0	536
0	0	0	0	0	539
1	0	0	0	0	528
2	0	0	0	0	529
3	0	0	0	0	539
4	0	0	0	0	536
5	0	0	0	0	535
6	0	0	0	0	556
7	0	0	0	0	562
8	0	0	0	0	548
9	0	0	0	0	556
10	0	0	0	0	547
11	0	0	0	0	528
12	0	0	0	0	511
13	0	0	0	0	510
14	0	0	0	0	513
15	0	0	0	0	515
0	0	0	0	0	505
1	0	0	0	0	515
2	0	0	0	0	514
3	0	0	0	0	472
4	0	0	0	0	496
5	0	0	0	0	735
6	0	0	0	0	930
7	0	0	0	0	489
8	0	0	0	0	290
9	0	0	0	0	379
10	0	0	0	0	468
11	0	0	0	0	505
12	0	0	0	0	519
13	0	0	0	0	512
14	0	0	0	0	515
15	0	0	0	0	513
0	0	0	0	0	519
1	0	0	0	0	543
2	0	0	0	0	531
3	0	0	0	0	527
4	0	0	0	0	529
5	0	0	0	0	530
6	0	0	0	0	533
7	0	0	0	0	546
8	0	0	0	0	545
9	0	0	0	0	556
10	0	0	0	0	560
11	0	0	0	0	566
12	0	0	0	0	583
13	0	0	0	0	592
14	0	0	0	0	592
15	0	0	0	0	603
0	0	0	0	0	584
1	0	0	0	0	541
2	0	0	0	0	504
3	0	0	0	0	476
4	0	0	0	0	449
5	0	0	0	0	462
6	0	0	0	0	452
7	0	0	0	0	457
8	0	0	0	0	468
9	0	0	0	0	463
10	0	0	0	0	479
11	0	0	0	0	486
12	0	0	0	0	481
13	0	0	0	0	503
14	0	0	0	0	504
15	0	0	0	0	500
0	0	0	0	0	508
1	0	0	0	0	505
2	0	0	0	0	505
3	0	0	0	0	504
4	0	0	0	0	509
5	0	0	0	0	512
6	0	0	0	0	514
7	0	0	0	0	521
8	0	0	0	0	514
9	0	0	0	0	514
10	0	0	0	0	520
11	0	0	0	0	519
12	0	0	0	0	519
13	0	0	0	0	523
14	0	0	0	0	517
15	0	0	0	0	528
0	0	0	0	0	528
1	0	0	0	0	527
2	0	0	0	0	541
3	0	0	0	0	552
4	0	0	0	0	543
5	0	0	0	0	547
6	0	0	0	0	543
7	0	0	0	0	520
8	0	0	0	0	500
9	0	0	0	0	488
10	0	0	0	0	505
11	0	0	0	0	496
12	0	0	0	0	500
13	0	0	0	0	511
14	0	0	0	0	508
15	0	0	0	0	463
0	0	0	0	0	479
1	0	0	0	0	697
2	0	0	0	0	923
3	0	0	0	0	496
4	0	0	0	0	269
5	0	0	0	0	368
6	0	0	0	0	475
7	0	0	0	0	492
8	0	0	0	0	497
9	0	0	0	0	511
10	0	0	0	0	513
11	0	0	0	0	518
12	0	0	0	0	522
13	0	0	0	0	514
14	0	0	0	0	527
15	0	0	0	0	540
0	0	0	0	0	529
1	0	0	0	0	522
2	0	0	0	0	540
3	0	0	0	0	539
4	0	0	0	0	536
5	0	0	0	0	543
6	0	0	0	0	552
7	0	0	0	0	567
8	0	0	0	0	569
9	0	0	0	0	587
10	0	0	0	0	592
11	0	0	0	0	586
12	0	0	0	0	567
13	0	0	0	0	519
14	0	0	0	0	497
15	0	0	0	0	454
0	0	0	0	0	436
1	0	0	0	0	444
2	0	0	0	0	440
3	0	0	0	0	448
4	0	0	0	0	451
5	0	0	0	0	457
6	0	0	0	0	468
7	0	0	0	0	481
8	0	0	0	0	473
9	0	0	0	0	481
10	0	0	0	0	483
11	0	0	0	0	481
12	0	0	0	0	492
13	0	0	0	0	493
14	0	0	0	0	500
15	0	0	0	0	504
0	0	0	0	0	506
1	0	0	0	0	503
2	0	0	0	0	503
3	0	0	0	0	514
4	0	0	0	0	497
5	0	0	0	0	510
6	0	0	0	0	514
7	0	0	0	0	512
8	0	0	0	0	514
9	0	0	0	0	518
10	0	0	0	0	518
11	0	0	0	0	519
12	0	0	0	0	520
13	0	0	0	0	516
14	0	0	0	0	519
15	0	0	0	0	524
0	0	0	0	0	540
1	0	0	0	0	531
2	0	0	0	0	547
3	0	0	0	0	537
4	0	0	0	0	545
5	0	0	0	0	543
6	0	0	0	0	512
7	0	0	0	0	512
8	0	0	0	0	493
9	0	0	0	0	510
10	0	0	0	0	487
11	0	0	0	0	504
12	0	0	0	0	491
13	0	0	0	0	502
14	0	0	0	0	461
15	0	0	0	0	480
0	0	0	0	0	684
1	0	0	0	0	915
2	0	0	0	0	561
3	0	0	0	0	264
4	0	0	0	0	368
5	0	0	0	0	470
6	0	0	0	0	477
7	0	0	0	0	500
8	0	0	0	0	493
9	0	0	0	0	504
10	0	0	0	0	511
11	0	0	0	0	512
12	0	0	0	0	520
13	0	0	0	0	517
14	0	0	0	0	522
15	0	0	0	0	520
0	0	0	0	0	517
1	0	0	0	0	527
2	0	0	0	0	531
3	0	0	0	0	535
4	0	0	0	0	537
5	0	0	0	0	551
6	0	0	0	0	563
7	0	0	0	0	566
8	0	0	0	0	574
9	0	0	0	0	583
10	0	0	0	0	588
11	0	0	0	0	560
12	0	0	0	0	527
13	0	0	0	0	500
14	0	0	0	0	464
15	0	0	0	0	447
0	0	0	0	0	444
1	0	0	0	0	440
2	0	0	0	0	464
3	0	0	0	0	453
4	0	0	0	0	463
5	0	0	0	0	471
6	0	0	0	0	473
7	0	0	0	0	481
8	0	0	0	0	485
9	0	0	0	0	489
10	0	0	0	0	490
11	0	0	0	0	490
12	0	0	0	0	494
13	0	0	0	0	511
14	0	0	0	0	492
15	0	0	0	0	497
0	0	0	0	0	498
1	0	0	0	0	510
2	0	0	0	0	504
3	0	0	0	0	494
4	0	0	0	0	509
5	0	0	0	0	513
6	0	0	0	0	511
7	0	0	0	0	510
8	0	0	0	0	510
9	0	0	0	0	515
10	0	0	0	0	507
11	0	0	0	0	514
12	0	0	0	0	511
13	0	0	0	0	517
14	0	0	0	0	515
15	0	0	0	0	529
0	0	0	0	0	527
1	0	0	0	0	536
2	0	0	0	0	535
3	0	0	0	0	541
4	0	0	0	0	540
5	0	0	0	0	541
6	0	0	0	0	543
7	0	0	0	0	524
8	0	0	0	0	503
9	0	0	0	0	499
10	0	0	0	0	501
11	0	0	0	0	498
12	0	0	0	0	495
13	0	0	0	0	504
14	0	0	0	0	509
15	0	0	0	0	471
0	0	0	0	0	474
1	0	0	0	0	661
2	0	0	0	0	911
3	0	0	0	0	599
4	0	0	0	0	280
5	0	0	0	0	353
6	0	0	0	0	448
7	0	0	0	0	483
8	0	0	0	0	494
9	0	0	0	0	498
10	0	0	0	0	501
11	0	0	0	0	512
12	0	0	0	0	519
13	0	0	0	0	519
14	0	0	0	0	520
15	0	0	0	0	517
0	0	0	0	0	516
1	0	0	0	0	524
2	0	0	0	0	527
3	0	0	0	0	523
4	0	0	0	0	536
5	0	0	0	0	545
6	0	0	0	0	538
7	0	0	0	0	558
8	0	0	0	0	572
9	0	0	0	0	579
10	0	0	0	0	579
11	0	0	0	0	581
12	0	0	0	0	570
13	0	0	0	0	547
14	0	0	0	0	500
15	0	0	0	0	467
0	0	0	0	0	443
1	0	0	0	0	447
2	0	0	0	0	445
3	0	0	0	0	445
4	0	0	0	0	459
5	0	0	0	0	467
6	0	0	0	0	469
7	0	0	0	0	471
8	0	0	0	0	478
9	0	0	0	0	479
10	0	0	0	0	480
11	0	0	0	0	484
12	0	0	0	0	487
13	0	0	0	0	500
14	0	0	0	0	502
15	0	0	0	0	501
0	0	0	0	0	503
1	0	0	0	0	502
2	0	0	0	0	505
3	0	0	0	0	502
4	0	0	0	0	505
5	0	0	0	0	509
6	0	0	0	0	512
7	0	0	0	0	513
8	0	0	0	0	512
9	0	0	0	0	524
10	0	0	0	0	508
11	0	0	0	0	519
12	0	0	0	0	515
13	0	0	0	0	513
14	0	0	0	0	517
15	0	0	0	0	510
0	0	0	0	0	515
1	0	0	0	0	517
2	0	0	0	0	523
3	0	0	0	0	516
4	0	0	0	0	526
5	0	0	0	0	531
6	0	0	0	0	529
7	0	0	0	0	546
8	0	0	0	0	541
9	0	0	0	0	537
10	0	0	0	0	540
11	0	0	0	0	530
12	0	0	0	0	504
13	0	0	0	0	494
14	0	0	0	0	490
15	0	0	0	0	498
0	0	0	0	0	499
1	0	0	0	0	498
2	0	0	0	0	507
3	0	0	0	0	487
4	0	0	0	0	464
5	0	0	0	0	603
6	0	0	0	0	891
7	0	0	0	0	712
8	0	0	0	0	284
9	0	0	0	0	323
10	0	0	0	0	447
11	0	0	0	0	484
12	0	0	0	0	491
13	0	0	0	0	497
14	0	0	0	0	510
15	0	0	0	0	512
0	0	0	0	0	511
1	0	0	0	0	518
2	0	0	0	0	516
3	0	0	0	0	524
4	0	0	0	0	524
5	0	0	0	0	528
6	0	0	0	0	528
7	0	0	0	0	524
8	0	0	0	0	533
9	0	0	0	0	542
10	0	0	0	0	548
11	0	0	0	0	558
12	0	0	0	0	563
13	0	0	0	0	579
14	0	0	0	0	576
15	0	0	0	0	581
0	0	0	0	0	573
1	0	0	0	0	544
2	0	0	0	0	511
3	0	0	0	0	476
4	0	0	0	0	454
5	0	0	0	0	441
6	0	0	0	0	441
7	0	0	0	0	442
8	0	0	0	0	451
9	0	0	0	0	459
10	0	0	0	0	472
11	0	0	0	0	472
12	0	0	0	0	480
13	0	0	0	0	484
14	0	0	0	0	479
15	0	0	0	0	489
0	0	0	0	0	486
1	0	0	0	0	492
2	0	0	0	0	488
3	0	0	0	0	505
4	0	0	0	0	494
5	0	0	0	0	503
6	0	0	0	0	507
7	0	0	0	0	510
8	0	0	0	0	502
9	0	0	0	0	514
10	0	0	0	0	512
11	0	0	0	0	513
12	0	0	0	0	520
13	0	0	0	0	521
14	0	0	0	0	518
15	0	0	0	0	513
0	0	0	0	0	512
1	0	0	0	0	517
2	0	0	0	0	517
3	0	0	0	0	519
4	0	0	0	0	506
5	0	0	0	0	521
6	0	0	0	0	523
7	0	0	0	0	539
8	0	0	0	0	534
9	0	0	0	0	551
10	0	0	0	0	533
11	0	0	0	0	534
12	0	0	0	0	534
13	0	0	0	0	523
14	0	0	0	0	501
15	0	0	0	0	497
0	0	0	0	0	491
1	0	0	0	0	496
2	0	0	0	0	494
3	0	0	0	0	497
4	0	0	0	0	504
5	0	0	0	0	463
6	0	0	0	0	472
7	0	0	0	0	677
8	0	0	0	0	922
9	0	0	0	0	527
10	0	0	0	0	267
11	0	0	0	0	357
12	0	0	0	0	454
13	0	0	0	0	496
14	0	0	0	0	500
15	0	0	0	0	502
0	0	0	0	0	510
1	0	0	0	0	516
2	0	0	0	0	519
3	0	0	0	0	525
4	0	0	0	0	519
5	0	0	0	0	521
6	0	0	0	0	527
7	0	0	0	0	523
8	0	0	0	0	532
9	0	0	0	0	532
10	0	0	0	0	536
11	0	0	0	0	545
12	0	0	0	0	551
13	0	0	0	0	556
14	0	0	0	0	570
15	0	0	0	0	584
0	0	0	0	0	594
1	0	0	0	0	582
2	0	0	0	0	572
3	0	0	0	0	536
4	0	0	0	0	496
5	0	0	0	0	461
6	0	0	0	0	440
7	0	0	0	0	441
8	0	0	0	0	440
9	0	0	0	0	435
10	0	0	0	0	454
11	0	0	0	0	460
12	0	0	0	0	467
13	0	0	0	0	468
14	0	0	0	0	472
15	0	0	0	0	484
0	0	0	0	0	480
1	0	0	0	0	487
2	0	0	0	0	484
3	0	0	0	0	496
4	0	0	0	0	500
5	0	0	0	0	495
6	0	0	0	0	497
7	0	0	0	0	507
8	0	0	0	0	506
9	0	0	0	0	502
10	0	0	0	0	511
11	0	0	0	0	516
12	0	0	0	0	505
13	0	0	0	0	508
14	0	0	0	0	513
15	0	0	0	0	525
0	0	0	0	0	515
1	0	0	0	0	522
2	0	0	0	0	527
3	0	0	0	0	528
4	0	0	0	0	535
5	0	0	0	0	543
6	0	0	0	0	536
7	0	0	0	0	535
8	0	0	0	0	527
9	0	0	0	0	512
10	0	0	0	0	495
11	0	0	0	0	498
12	0	0	0	0	501
13	0	0	0	0	502
14	0	0	0	0	494
15	0	0	0	0	498
0	0	0	0	0	497
1	0	0	0	0	458
2	0	0	0	0	550
3	0	0	0	0	829
4	0	0	0	0	809
5	0	0	0	0	317
6	0	0	0	0	299
7	0	0	0	0	420
8	0	0	0	0	487
9	0	0	0	0	500
10	0	0	0	0	506
11	0	0	0	0	504
12	0	0	0	0	516
13	0	0	0	0	510
14	0	0	0	0	517
15	0	0	0	0	518
0	0	0	0	0	528
1	0	0	0	0	531
2	0	0	0	0	521
3	0	0	0	0	535
4	0	0	0	0	529
5	0	0	0	0	540
6	0	0	0	0	535
7	0	0	0	0	545
8	0	0	0	0	561
9	0	0	0	0	573
10	0	0	0	0	574
11	0	0	0	0	591
12	0	0	0	0	586
13	0	0	0	0	572
14	0	0	0	0	543
15	0	0	0	0	508
0	0	0	0	0	475
1	0	0	0	0	455
2	0	0	0	0	437
3	0	0	0	0	445
4	0	0	0	0	444
5	0	0	0	0	446
6	0	0	0	0	460
7	0	0	0	0	472
8	0	0	0	0	472
9	0	0	0	0	479
10	0	0	0	0	486
11	0	0	0	0	483
12	0	0	0	0	483
13	0	0	0	0	483
14	0	0	0	0	488
15	0	0	0	0	498
0	0	0	0	0	496
1	0	0	0	0	505
2	0	0	0	0	511
3	0	0	0	0	508
4	0	0	0	0	504
5	0	0	0	0	513
6	0	0	0	0	509
7	0	0	0	0	516
8	0	0	0	0	514
9	0	0	0	0	514
10	0	0	0	0	509
11	0	0	0	0	522
12	0	0	0	0	523
13	0	0	0	0	516
14	0	0	0	0	510
15	0	0	0	0	520
0	0	0	0	0	538
1	0	0	0	0	530
2	0	0	0	0	537
3	0	0	0	0	547
4	0	0	0	0	549
5	0	0	0	0	539
6	0	0	0	0	524
7	0	0	0	0	512
8	0	0	0	0	492
9	0	0	0	0	496
10	0	0	0	0	508
11	0	0	0	0	495
12	0	0	0	0	500
13	0	0	0	0	509
14	0	0	0	0	490
15	0	0	0	0	464
0	0	0	0	0	580
1	0	0	0	0	871
2	0	0	0	0	779
3	0	0	0	0	299
4	0	0	0	0	323
5	0	0	0	0	437
6	0	0	0	0	481
7	0	0	0	0	487
8	0	0	0	0	507
9	0	0	0	0	509
10	0	0	0	0	513
11	0	0	0	0	519
12	0	0	0	0	515
13	0	0	0	0	522
14	0	0	0	0	528
15	0	0	0	0	532
0	0	0	0	0	528
1	0	0	0	0	525
2	0	0	0	0	524
3	0	0	0	0	537
4	0	0	0	0	534
5	0	0	0	0	557
6	0	0	0	0	553
7	0	0	0	0	569
8	0	0	0	0	571
9	0	0	0	0	583
10	0	0	0	0	588
11	0	0	0	0	577
12	0	0	0	0	555
13	0	0	0	0	509
14	0	0	0	0	480
15	0	0	0	0	449
0	0	0	0	0	439
1	0	0	0	0	446
2	0	0	0	0	449
3	0	0	0	0	453
4	0	0	0	0	459
5	0	0	0	0	465
6	0	0	0	0	471
7	0	0	0	0	478
8	0	0	0	0	480
9	0	0	0	0	487
10	0	0	0	0	495
11	0	0	0	0	492
12	0	0	0	0	495
13	0	0	0	0	500
14	0	0	0	0	498
15	0	0	0	0	495
0	0	0	0	0	497
1	0	0	0	0	506
2	0	0	0	0	503
3	0	0	0	0	506
4	0	0	0	0	508
5	0	0	0	0	512
6	0	0	0	0	509
7	0	0	0	0	514
8	0	0	0	0	512
9	0	0	0	0	515
10	0	0	0	0	511
11	0	0	0	0	525
12	0	0	0	0	511
13	0	0	0	0	514
14	0	0	0	0	509
15	0	0	0	0	515
0	0	0	0	0	519
1	0	0	0	0	523
2	0	0	0	0	520
3	0	0	0	0	524
4	0	0	0	0	528
5	0	0	0	0	544
6	0	0	0	0	537
7	0	0	0	0	537
8	0	0	0	0	541
9	0	0	0	0	522
10	0	0	0	0	504
11	0	0	0	0	498
12	0	0	0	0	502
13	0	0	0	0	494
14	0	0	0	0	490
15	0	0	0	0	494
0	0	0	0	0	496
1	0	0	0	0	495
2	0	0	0	0	464
3	0	0	0	0	607
4	0	0	0	0	889
5	0	0	0	0	711
6	0	0	0	0	266
7	0	0	0	0	324
8	0	0	0	0	442
9	0	0	0	0	479
10	0	0	0	0	497
11	0	0	0	0	503
12	0	0	0	0	508
13	0	0	0	0	498
14	0	0	0	0	511
15	0	0	0	0	517
0	0	0	0	0	516
1	0	0	0	0	521
2	0	0	0	0	520
3	0	0	0	0	524
4	0	0	0	0	523
5	0	0	0	0	533
6	0	0	0	0	538
7	0	0	0	0	539
8	0	0	0	0	551
9	0	0	0	0	552
10	0	0	0	0	559
11	0	0	0	0	573
12	0	0	0	0	568
13	0	0	0	0	582
14	0	0	0	0	576
15	0	0	0	0	551
0	0	0	0	0	516
1	0	0	0	0	482
2	0	0	0	0	449
3	0	0	0	0	445
4	0	0	0	0	443
5	0	0	0	0	451
6	0	0	0	0	457
7	0	0	0	0	460
8	0	0	0	0	474
9	0	0	0	0	471
10	0	0	0	0	476
11	0	0	0	0	478
12	0	0	0	0	482
13	0	0	0	0	489
14	0	0	0	0	496
15	0	0	0	0	496
0	0	0	0	0	489
1	0	0	0	0	496
2	0	0	0	0	500
3	0	0	0	0	504
4	0	0	0	0	506
5	0	0	0	0	501
6	0	0	0	0	508
7	0	0	0	0	511
8	0	0	0	0	500
9	0	0	0	0	517
10	0	0	0	0	517
11	0	0	0	0	512
12	0	0	0	0	517
13	0	0	0	0	515
14	0	0	0	0	514
15	0	0	0	0	518
0	0	0	0	0	515
1	0	0	0	0	515
2	0	0	0	0	518
3	0	0	0	0	515
4	0	0	0	0	516
5	0	0	0	0	519
6	0	0	0	0	522
7	0	0	0	0	527
8	0	0	0	0	526
9	0	0	0	0	533
10	0	0	0	0	547
11	0	0	0	0	538
12	0	0	0	0	540
13	0	0	0	0	535
14	0	0	0	0	523
15	0	0	0	0	502
0	0	0	0	0	496
1	0	0	0	0	497
2	0	0	0	0	491
3	0	0	0	0	497
4	0	0	0	0	494
5	0	0	0	0	504
6	0	0	0	0	482
7	0	0	0	0	477
8	0	0	0	0	626
9	0	0	0	0	913
10	0	0	0	0	640
11	0	0	0	0	273
12	0	0	0	0	329
13	0	0	0	0	450
14	0	0	0	0	482
15	0	0	0	0	498
0	0	0	0	0	508
1	0	0	0	0	508
2	0	0	0	0	505
3	0	0	0	0	521
4	0	0	0	0	524
5	0	0	0	0	524
6	0	0	0	0	526
7	0	0	0	0	527
8	0	0	0	0	533
9	0	0	0	0	524
10	0	0	0	0	528
11	0	0	0	0	534
12	0	0	0	0	546
13	0	0	0	0	557
14	0	0	0	0	560
15	0	0	0	0	567
0	0	0	0	0	576
1	0	0	0	0	584
2	0	0	0	0	592
3	0	0	0	0	568
4	0	0	0	0	547
5	0	0	0	0	515
6	0	0	0	0	467
7	0	0	0	0	446
8	0	0	0	0	441
9	0	0	0	0	444
10	0	0	0	0	450
11	0	0	0	0	447
12	0	0	0	0	456
13	0	0	0	0	468
14	0	0	0	0	472
15	0	0	0	0	470
0	0	0	0	0	478
1	0	0	0	0	481
2	0	0	0	0	486
3	0	0	0	0	489
4	0	0	0	0	499
5	0	0	0	0	487
6	0	0	0	0	497
7	0	0	0	0	500
8	0	0	0	0	501
9	0	0	0	0	506
10	0	0	0	0	508
11	0	0	0	0	508
12	0	0	0	0	510
13	0	0	0	0	518
14	0	0	0	0	510
15	0	0	0	0	518
0	0	0	0	0	518
1	0	0	0	0	503
2	0	0	0	0	515
3	0	0	0	0	516
4	0	0	0	0	518
5	0	0	0	0	519
6	0	0	0	0	524
7	0	0	0	0	531
8	0	0	0	0	536
9	0	0	0	0	545
10	0	0	0	0	538
11	0	0	0	0	538
12	0	0	0	0	535
13	0	0	0	0	517
14	0	0	0	0	504
15	0	0	0	0	491
0	0	0	0	0	493
1	0	0	0	0	499
2	0	0	0	0	506
3	0	0	0	0	491
4	0	0	0	0	503
5	0	0	0	0	463
6	0	0	0	0	484
7	0	0	0	0	697
8	0	0	0	0	916
9	0	0	0	0	465
10	0	0	0	0	270
11	0	0	0	0	359
12	0	0	0	0	472
13	0	0	0	0	491
14	0	0	0	0	505
15	0	0	0	0	520
0	0	0	0	0	510
1	0	0	0	0	513
2	0	0	0	0	514
3	0	0	0	0	527
4	0	0	0	0	530
5	0	0	0	0	524
6	0	0	0	0	526
7	0	0	0	0	525
8	0	0	0	0	526
9	0	0	0	0	533
10	0	0	0	0	540
11	0	0	0	0	551
12	0	0	0	0	558
13	0	0	0	0	564
14	0	0	0	0	576
15	0	0	0	0	579
0	0	0	0	0	583
1	0	0	0	0	588
2	0	0	0	0	564
3	0	0	0	0	527
4	0	0	0	0	486
5	0	0	0	0	460
6	0	0	0	0	441
7	0	0	0	0	442
8	0	0	0	0	444
9	0	0	0	0	444
10	0	0	0	0	451
11	0	0	0	0	457
12	0	0	0	0	468
13	0	0	0	0	478
14	0	0	0	0	472
15	0	0	0	0	474
0	0	0	0	0	483
1	0	0	0	0	491
2	0	0	0	0	491
3	0	0	0	0	498
4	0	0	0	0	496
5	0	0	0	0	509
6	0	0	0	0	499
7	0	0	0	0	507
8	0	0	0	0	510
9	0	0	0	0	510
10	0	0	0	0	508
11	0	0	0	0	514
12	0	0	0	0	508
13	0	0	0	0	512
14	0	0	0	0	516
15	0	0	0	0	514
0	0	0	0	0	515
1	0	0	0	0	517
2	0	0	0	0	521
3	0	0	0	0	512
4	0	0	0	0	515
5	0	0	0	0	520
6	0	0	0	0	525
7	0	0	0	0	531
8	0	0	0	0	528
9	0	0	0	0	545
10	0	0	0	0	540
11	0	0	0	0	541
12	0	0	0	0	537
13	0	0	0	0	527
14	0	0	0	0	501
15	0	0	0	0	501
0	0	0	0	0	496
1	0	0	0	0	494
2	0	0	0	0	500
3	0	0	0	0	499
4	0	0	0	0	499
5	0	0	0	0	475
6	0	0	0	0	467
7	0	0	0	0	635
8	0	0	0	0	915
9	0	0	0	0	641
10	0	0	0	0	277
11	0	0	0	0	343
12	0	0	0	0	452
13	0	0	0	0	486
14	0	0	0	0	498
15	0	0	0	0	502
0	0	0	0	0	511
1	0	0	0	0	510
2	0	0	0	0	515
3	0	0	0	0	515
4	0	0	0	0	521
5	0	0	0	0	526
6	0	0	0	0	516
7	0	0	0	0	526
8	0	0	0	0	531
9	0	0	0	0	532
10	0	0	0	0	534
11	0	0	0	0	541
12	0	0	0	0	543
13	0	0	0	0	565
14	0	0	0	0	567
15	0	0	0	0	576
0	0	0	0	0	581
1	0	0	0	0	585
2	0	0	0	0	574
3	0	0	0	0	539
4	0	0	0	0	498
5	0	0	0	0	473
6	0	0	0	0	450
7	0	0	0	0	440
8	0	0	0	0	446
9	0	0	0	0	444
10	0	0	0	0	455
11	0	0	0	0	471
12	0	0	0	0	464
13	0	0	0	0	475
14	0	0	0	0	480
15	0	0	0	0	483
0	0	0	0	0	490
1	0	0	0	0	491
2	0	0	0	0	485
3	0	0	0	0	496
4	0	0	0	0	496
5	0	0	0	0	499
6	0	0	0	0	508
7	0	0	0	0	505
8	0	0	0	0	510
9	0	0	0	0	508
10	0	0	0	0	512
11	0	0	0	0	510
12	0	0	0	0	512
13	0	0	0	0	509
14	0	0	0	0	513
15	0	0	0	0	511
0	0	0	0	0	520
1	0	0	0	0	516
2	0	0	0	0	515
3	0	0	0	0	515
4	0	0	0	0	518
5	0	0	0	0	515
6	0	0	0	0	511
7	0	0	0	0	522
8	0	0	0	0	523
9	0	0	0	0	527
10	0	0	0	0	526
11	0	0	0	0	532
12	0	0	0	0	546
13	0	0	0	0	545
14	0	0	0	0	537
15	0	0	0	0	536
0	0	0	0	0	511
1	0	0	0	0	497
2	0	0	0	0	492
3	0	0	0	0	495
4	0	0	0	0	494
5	0	0	0	0	494
6	0	0	0	0	495
7	0	0	0	0	502
8	0	0	0	0	472
9	0	0	0	0	473
10	0	0	0	0	660
11	0	0	0	0	926
12	0	0	0	0	595
13	0	0	0	0	264
14	0	0	0	0	352
15	0	0	0	0	453
0	0	0	0	0	486
1	0	0	0	0	493
2	0	0	0	0	496
3	0	0	0	0	508
4	0	0	0	0	510
5	0	0	0	0	516
6	0	0	0	0	515
7	0	0	0	0	517
8	0	0	0	0	520
9	0	0	0	0	524
10	0	0	0	0	526
11	0	0	0	0	523
12	0	0	0	0	537
13	0	0	0	0	536
14	0	0	0	0	537
15	0	0	0	0	549
0	0	0	0	0	563
1	0	0	0	0	567
2	0	0	0	0	581
3	0	0	0	0	583
4	0	0	0	0	581
5	0	0	0	0	572
6	0	0	0	0	541
7	0	0	0	0	498
8	0	0	0	0	470
9	0	0	0	0	451
10	0	0	0	0	435
11	0	0	0	0	440
12	0	0	0	0	451
13	0	0	0	0	449
14	0	0	0	0	460
15	0	0	0	0	467
0	0	0	0	0	472
1	0	0	0	0	479
2	0	0	0	0	480
3	0	0	0	0	483
4	0	0	0	0	487
5	0	0	0	0	491
6	0	0	0	0	491
7	0	0	0	0	498
8	0	0	0	0	505
9	0	0	0	0	496
10	0	0	0	0	504
11	0	0	0	0	504
12	0	0	0	0	505
13	0	0	0	0	509
14	0	0	0	0	516
15	0	0	0	0	518
0	0	0	0	0	512
1	0	0	0	0	513
2	0	0	0	0	513
3	0	0	0	0	518
4	0	0	0	0	517
5	0	0	0	0	519
6	0	0	0	0	522
7	0	0	0	0	514
8	0	0	0	0	510
9	0	0	0	0	512
10	0	0	0	0	516
11	0	0	0	0	518
12	0	0	0	0	518
13	0	0	0	0	526
14	0	0	0	0	523
15	0	0	0	0	532
0	0	0	0	0	537
1	0	0	0	0	541
2	0	0	0	0	540
3	0	0	0	0	544
4	0	0	0	0	527
5	0	0	0	0	511
6	0	0	0	0	494
7	0	0	0	0	499
8	0	0	0	0	497
9	0	0	0	0	497
10	0	0	0	0	496
11	0	0	0	0	500
12	0	0	0	0	497
13	0	0	0	0	452
14	0	0	0	0	551
15	0	0	0	0	841
0	0	0	0	0	824
1	0	0	0	0	306
2	0	0	0	0	295
3	0	0	0	0	411
4	0	0	0	0	487
5	0	0	0	0	501
6	0	0	0	0	498
7	0	0	0	0	504
8	0	0	0	0	510
9	0	0	0	0	516
10	0	0	0	0	517
11	0	0	0	0	519
12	0	0	0	0	517
13	0	0	0	0	524
14	0	0	0	0	530
15	0	0	0	0	533
0	0	0	0	0	534
1	0	0	0	0	532
2	0	0	0	0	543
3	0	0	0	0	556
4	0	0	0	0	551
5	0	0	0	0	567
6	0	0	0	0	579
7	0	0	0	0	585
8	0	0	0	0	590
9	0	0	0	0	584
10	0	0	0	0	556
11	0	0	0	0	519
12	0	0	0	0	481
13	0	0	0	0	456
14	0	0	0	0	440
15	0	0	0	0	435
0	0	0	0	0	438
1	0	0	0	0	447
2	0	0	0	0	452
3	0	0	0	0	465
4	0	0	0	0	466
5	0	0	0	0	472
6	0	0	0	0	473
7	0	0	0	0	479
8	0	0	0	0	492
9	0	0	0	0	489
10	0	0	0	0	484
11	0	0	0	0	497
12	0	0	0	0	496
13	0	0	0	0	506
14	0	0	0	0	497
15	0	0	0	0	506
0	0	0	0	0	504
1	0	0	0	0	508
2	0	0	0	0	508
3	0	0	0	0	511
4	0	0	0	0	515
5	0	0	0	0	515
6	0	0	0	0	511
7	0	0	0	0	517
8	0	0	0	0	514
9	0	0	0	0	509
10	0	0	0	0	518
11	0	0	0	0	521
12	0	0	0	0	519
13	0	0	0	0	521
14	0	0	0	0	524
15	0	0	0	0	539
0	0	0	0	0	541
1	0	0	0	0	547
2	0	0	0	0	542
3	0	0	0	0	526
4	0	0	0	0	502
5	0	0	0	0	494
6	0	0	0	0	498
7	0	0	0	0	501
8	0	0	0	0	500
9	0	0	0	0	501
10	0	0	0	0	503
11	0	0	0	0	480
12	0	0	0	0	460
13	0	0	0	0	573
14	0	0	0	0	837
15	0	0	0	0	813
0	0	0	0	0	308
1	0	0	0	0	291
2	0	0	0	0	422
3	0	0	0	0	490
4	0	0	0	0	495
5	0	0	0	0	506
6	0	0	0	0	510
7	0	0	0	0	524
8	0	0	0	0	519
9	0	0	0	0	524
10	0	0	0	0	524
11	0	0	0	0	523
12	0	0	0	0	531
13	0	0	0	0	517
14	0	0	0	0	528
15	0	0	0	0	540
0	0	0	0	0	538
1	0	0	0	0	536
2	0	0	0	0	553
3	0	0	0	0	552
4	0	0	0	0	565
5	0	0	0	0	577
6	0	0	0	0	579
7	0	0	0	0	589
8	0	0	0	0	569
9	0	0	0	0	556
10	0	0	0	0	516
11	0	0	0	0	478
12	0	0	0	0	445
13	0	0	0	0	439
14	0	0	0	0	441
15	0	0	0	0	447
0	0	0	0	0	447
1	0	0	0	0	449
2	0	0	0	0	460
3	0	0	0	0	469
4	0	0	0	0	475
5	0	0	0	0	476
6	0	0	0	0	481
7	0	0	0	0	484
8	0	0	0	0	487
9	0	0	0	0	497
10	0	0	0	0	487
11	0	0	0	0	498
12	0	0	0	0	499
13	0	0	0	0	503
14	0	0	0	0	503
15	0	0	0	0	511
0	0	0	0	0	510
1	0	0	0	0	510
2	0	0	0	0	509
3	0	0	0	0	504
4	0	0	0	0	514
5	0	0	0	0	520
6	0	0	0	0	515
7	0	0	0	0	508
8	0	0	0	0	517
9	0	0	0	0	513
10	0	0	0	0	523
11	0	0	0	0	520
12	0	0	0	0	512
13	0	0	0	0	519
14	0	0	0	0	522
15	0	0	0	0	532
0	0	0	0	0	527
1	0	0	0	0	540
2	0	0	0	0	541
3	0	0	0	0	541
4	0	0	0	0	535
5	0	0	0	0	529
6	0	0	0	0	513
7	0	0	0	0	493
8	0	0	0	0	487
9	0	0	0	0	492
10	0	0	0	0	500
11	0	0	0	0	502
12	0	0	0	0	508
13	0	0	0	0	500
14	0	0	0	0	452
15	0	0	0	0	535
0	0	0	0	0	832
1	0	0	0	0	853
2	0	0	0	0	329
3	0	0	0	0	305
4	0	0	0	0	426
5	0	0	0	0	476
6	0	0	0	0	489
7	0	0	0	0	494
8	0	0	0	0	505
9	0	0	0	0	511
10	0	0	0	0	516
11	0	0	0	0	518
12	0	0	0	0	524
13	0	0	0	0	518
14	0	0	0	0	521
15	0	0	0	0	523
0	0	0	0	0	525
1	0	0	0	0	531
2	0	0	0	0	526
3	0	0	0	0	542
4	0	0	0	0	543
5	0	0	0	0	555
6	0	0	0	0	561
7	0	0	0	0	571
8	0	0	0	0	584
9	0	0	0	0	584
10	0	0	0	0	584
11	0	0	0	0	550
12	0	0	0	0	517
13	0	0	0	0	485
14	0	0	0	0	452
15	0	0	0	0	446
0	0	0	0	0	436
1	0	0	0	0	448
2	0	0	0	0	455
3	0	0	0	0	466
4	0	0	0	0	464
5	0	0	0	0	470
6	0	0	0	0	478
7	0	0	0	0	483
8	0	0	0	0	487
9	0	0	0	0	486
10	0	0	0	0	489
11	0	0	0	0	494
12	0	0	0	0	487
13	0	0	0	0	498
14	0	0	0	0	503
15	0	0	0	0	494
0	0	0	0	0	507
1	0	0	0	0	507
2	0	0	0	0	503
3	0	0	0	0	510
4	0	0	0	0	515
5	0	0	0	0	508
6	0	0	0	0	515
7	0	0	0	0	515
8	0	0	0	0	516
9	0	0	0	0	517
10	0	0	0	0	507
11	0	0	0	0	524
12	0	0	0	0	519
13	0	0	0	0	524
14	0	0	0	0	515
15	0	0	0	0	519
0	0	0	0	0	513
1	0	0	0	0	524
2	0	0	0	0	513
3	0	0	0	0	521
4	0	0	0	0	532
5	0	0	0	0	527
6	0	0	0	0	525
7	0	0	0	0	532
8	0	0	0	0	553
9	0	0	0	0	541
10	0	0	0	0	540
11	0	0	0	0	529
12	0	0	0	0	509
13	0	0	0	0	498
14	0	0	0	0	494
15	0	0	0	0	499
0	0	0	0	0	503
1	0	0	0	0	502
2	0	0	0	0	504
3	0	0	0	0	502
4	0	0	0	0	468
5	0	0	0	0	476
6	0	0	0	0	668
7	0	0	0	0	918
8	0	0	0	0	575
9	0	0	0	0	270
10	0	0	0	0	354
11	0	0	0	0	458
12	0	0	0	0	491
13	0	0	0	0	491
14	0	0	0	0	504
15	0	0	0	0	500
0	0	0	0	0	514
1	0	0	0	0	511
2	0	0	0	0	511
3	0	0	0	0	522
4	0	0	0	0	521
5	0	0	0	0	528
6	0	0	0	0	521
7	0	0	0	0	529
8	0	0	0	0	530
9	0	0	0	0	539
10	0	0	0	0	544
11	0	0	0	0	553
12	0	0	0	0	558
13	0	0	0	0	563
14	0	0	0	0	576
15	0	0	0	0	582
0	0	0	0	0	588
1	0	0	0	0	571
2	0	0	0	0	549
3	0	0	0	0	505
4	0	0	0	0	473
5	0	0	0	0	455
6	0	0	0	0	436
7	0	0	0	0	438
8	0	0	0	0	448
9	0	0	0	0	446
10	0	0	0	0	459
11	0	0	0	0	463
12	0	0	0	0	469
13	0	0	0	0	480
14	0	0	0	0	485
15	0	0	0	0	475
0	0	0	0	0	485
1	0	0	0	0	487
2	0	0	0	0	488
3	0	0	0	0	494
4	0	0	0	0	500
5	0	0	0	0	496
6	0	0	0	0	499
7	0	0	0	0	507
8	0	0	0	0	508
9	0	0	0	0	504
10	0	0	0	0	511
11	0	0	0	0	509
12	0	0	0	0	509
13	0	0	0	0	513
14	0	0	0	0	518
15	0	0	0	0	512
0	0	0	0	0	523
1	0	0	0	0	513
2	0	0	0	0	516
3	0	0	0	0	515
4	0	0	0	0	517
5	0	0	0	0	519
6	0	0	0	0	521
7	0	0	0	0	518
8	0	0	0	0	523
9	0	0	0	0	520
10	0	0	0	0	518
11	0	0	0	0	512
12	0	0	0	0	519
13	0	0	0	0	514
14	0	0	0	0	521
15	0	0	0	0	526
0	0	0	0	0	521
1	0	0	0	0	541
2	0	0	0	0	547
3	0	0	0	0	542
4	0	0	0	0	543
5	0	0	0	0	536
6	0	0	0	0	513
7	0	0	0	0	498
8	0	0	0	0	497
9	0	0	0	0	495
10	0	0	0	0	495
11	0	0	0	0	507
12	0	0	0	0	508
13	0	0	0	0	499
14	0	0	0	0	455
15	0	0	0	0	477
0	0	0	0	0	713
1	0	0	0	0	929
2	0	0	0	0	478
3	0	0	0	0	262
4	0	0	0	0	369
5	0	0	0	0	456
6	0	0	0	0	488
7	0	0	0	0	496
8	0	0	0	0	496
9	0	0	0	0	510
10	0	0	0	0	512
11	0	0	0	0	521
12	0	0	0	0	520
13	0	0	0	0	519
14	0	0	0	0	520
15	0	0	0	0	525
0	0	0	0	0	527
1	0	0	0	0	527
2	0	0	0	0	532
3	0	0	0	0	536
4	0	0	0	0	544
5	0	0	0	0	556
6	0	0	0	0	555
7	0	0	0	0	577
8	0	0	0	0	582
9	0	0	0	0	584
10	0	0	0	0	584
11	0	0	0	0	578
12	0	0	0	0	547
13	0	0	0	0	504
14	0	0	0	0	472
15	0	0	0	0	440
0	0	0	0	0	438
1	0	0	0	0	445
2	0	0	0	0	439
3	0	0	0	0	448
4	0	0	0	0	458
5	0	0	0	0	462
6	0	0	0	0	463
7	0	0	0	0	477
8	0	0	0	0	486
9	0	0	0	0	476
10	0	0	0	0	482
11	0	0	0	0	494
12	0	0	0	0	498
13	0	0	0	0	493
14	0	0	0	0	498
15	0	0	0	0	507
0	0	0	0	0	497
1	0	0	0	0	494
2	0	0	0	0	512
3	0	0	0	0	505
4	0	0	0	0	515
5	0	0	0	0	516
6	0	0	0	0	508
7	0	0	0	0	519
8	0	0	0	0	518
9	0	0	0	0	512
10	0	0	0	0	510
11	0	0	0	0	515
12	0	0	0	0	516
13	0	0	0	0	524
14	0	0	0	0	515
15	0	0	0	0	522
0	0	0	0	0	534
1	0	0	0	0	538
2	0	0	0	0	545
3	0	0	0	0	541
4	0	0	0	0	536
5	0	0	0	0	510
6	0	0	0	0	497
7	0	0	0	0	492
8	0	0	0	0	499
9	0	0	0	0	501
10	0	0	0	0	500
11	0	0	0	0	499
12	0	0	0	0	503
13	0	0	0	0	466
14	0	0	0	0	473
15	0	0	0	0	688
0	0	0	0	0	913
1	0	0	0	0	472
2	0	0	0	0	263
3	0	0	0	0	356
4	0	0	0	0	469
5	0	0	0	0	503
6	0	0	0	0	504
7	0	0	0	0	502
8	0	0	0	0	521
9	0	0	0	0	521
10	0	0	0	0	518
11	0	0	0	0	526
12	0	0	0	0	526
13	0	0	0	0	531
14	0	0	0	0	531
15	0	0	0	0	528
0	0	0	0	0	531
1	0	0	0	0	532
2	0	0	0	0	545
3	0	0	0	0	552
4	0	0	0	0	550
5	0	0	0	0	569
6	0	0	0	0	577
7	0	0	0	0	582
8	0	0	0	0	596
9	0	0	0	0	585
10	0	0	0	0	575
11	0	0	0	0	526
12	0	0	0	0	483
13	0	0	0	0	462
14	0	0	0	0	427
15	0	0	0	0	437
0	0	0	0	0	444
1	0	0	0	0	433
2	0	0	0	0	452
3	0	0	0	0	448
4	0	0	0	0	464
5	0	0	0	0	471
6	0	0	0	0	473
7	0	0	0	0	471
8	0	0	0	0	484
9	0	0	0	0	482
10	0	0	0	0	490
11	0	0	0	0	494
12	0	0	0	0	495
13	0	0	0	0	494
14	0	0	0	0	512
15	0	0	0	0	500
0	0	0	0	0	510
1	0	0	0	0	509
2	0	0	0	0	505
3	0	0	0	0	513
4	0	0	0	0	516
5	0	0	0	0	508
6	0	0	0	0	509
7	0	0	0	0	526
8	0	0	0	0	518
9	0	0	0	0	518
10	0	0	0	0	523
11	0	0	0	0	529
12	0	0	0	0	530
13	0	0	0	0	537
14	0	0	0	0	548
15	0	0	0	0	554
0	0	0	0	0	547
1	0	0	0	0	527
2	0	0	0	0	508
3	0	0	0	0	501
4	0	0	0	0	492
5	0	0	0	0	504
6	0	0	0	0	516
7	0	0	0	0	510
8	0	0	0	0	512
9	0	0	0	0	491
10	0	0	0	0	472
11	0	0	0	0	630
12	0	0	0	0	908
13	0	0	0	0	702
14	0	0	0	0	289
15	0	0	0	0	347
0	0	0	0	0	454
1	0	0	0	0	494
2	0	0	0	0	510
3	0	0	0	0	512
4	0	0	0	0	518
5	0	0	0	0	531
6	0	0	0	0	535
7	0	0	0	0	536
8	0	0	0	0	533
9	0	0	0	0	542
10	0	0	0	0	539
11	0	0	0	0	542
12	0	0	0	0	543
13	0	0	0	0	548
14	0	0	0	0	555
15	0	0	0	0	569
0	0	0	0	0	568
1	0	0	0	0	579
2	0	0	0	0	586
3	0	0	0	0	598
4	0	0	0	0	604
5	0	0	0	0	603
6	0	0	0	0	600
7	0	0	0	0	554
8	0	0	0	0	522
9	0	0	0	0	496
10	0	0	0	0	476
11	0	0	0	0	466
12	0	0	0	0	459
13	0	0	0	0	462
14	0	0	0	0	470
15	0	0	0	0	472
0	0	0	0	0	492
1	0	0	0	0	483
2	0	0	0	0	494
3	0	0	0	0	492
4	0	0	0	0	499
5	0	0	0	0	507
6	0	0	0	0	504
7	0	0	0	0	515
8	0	0	0	0	505
9	0	0	0	0	508
10	0	0	0	0	506
11	0	0	0	0	508
12	0	0	0	0	508
13	0	0	0	0	517
14	0	0	0	0	505
15	0	0	0	0	505
0	0	0	0	0	513
1	0	0	0	0	508
2	0	0	0	0	502
3	0	0	0	0	505
4	0	0	0	0	508
5	0	0	0	0	505
6	0	0	0	0	508
7	0	0	0	0	515
8	0	0	0	0	519
9	0	0	0	0	525
10	0	0	0	0	538
11	0	0	0	0	515
12	0	0	0	0	531
13	0	0	0	0	519
14	0	0	0	0	496
15	0	0	0	0	480
0	0	0	0	0	477
1	0	0	0	0	475
2	0	0	0	0	483
3	0	0	0	0	482
4	0	0	0	0	481
5	0	0	0	0	482
6	0	0	0	0	438
7	0	0	0	0	458
8	0	0	0	0	676
9	0	0	0	0	904
10	0	0	0	0	503
11	0	0	0	0	252
12	0	0	0	0	345
13	0	0	0	0	430
14	0	0	0	0	460
15	0	0	0	0	473
0	0	0	0	0	468
1	0	0	0	0	475
2	0	0	0	0	475
3	0	0	0	0	487
4	0	0	0	0	492
5	0	0	0	0	488
6	0	0	0	0	492
7	0	0	0	0	500
8	0	0	0	0	495
9	0	0	0	0	497
10	0	0	0	0	502
11	0	0	0	0	511
12	0	0	0	0	512
13	0	0	0	0	519
14	0	0	0	0	533
15	0	0	0	0	549
0	0	0	0	0	555
1	0	0	0	0	557
2	0	0	0	0	564
3	0	0	0	0	536
4	0	0	0	0	505
5	0	0	0	0	465
6	0	0	0	0	440
7	0	0	0	0	422
8	0	0	0	0	422
9	0	0	0	0	425
10	0	0	0	0	422
11	0	0	0	0	433
12	0	0	0	0	443
13	0	0	0	0	444
14	0	0	0	0	455
15	0	0	0	0	454
0	0	0	0	0	464
1	0	0	0	0	467
2	0	0	0	0	464
3	0	0	0	0	476
4	0	0	0	0	480
5	0	0	0	0	470
6	0	0	0	0	478
7	0	0	0	0	484
8	0	0	0	0	487
9	0	0	0	0	488
10	0	0	0	0	481
11	0	0	0	0	481
12	0	0	0	0	484
13	0	0	0	0	499
14	0	0	0	0	496
15	0	0	0	0	501
0	0	0	0	0	502
1	0	0	0	0	500
2	0	0	0	0	511
3	0	0	0	0	512
4	0	0	0	0	509
5	0	0	0	0	511
6	0	0	0	0	509
7	0	0	0	0	518
8	0	0	0	0	514
9	0	0	0	0	531
10	0	0	0	0	540
11	0	0	0	0	537
12	0	0	0	0	529
13	0	0	0	0	534
14	0	0	0	0	525
15	0	0	0	0	508
0	0	0	0	0	500
1	0	0	0	0	497
2	0	0	0	0	491
3	0	0	0	0	490
4	0	0	0	0	503
5	0	0	0	0	496
6	0	0	0	0	496
7	0	0	0	0	459
8	0	0	0	0	569
9	0	0	0	0	860
10	0	0	0	0	822
11	0	0	0	0	312
12	0	0	0	0	309
13	0	0	0	0	418
14	0	0	0	0	480
15	0	0	0	0	488
0	0	0	0	0	503
1	0	0	0	0	508
2	0	0	0	0	509
3	0	0	0	0	507
4	0	0	0	0	525
5	0	0	0	0	516
6	0	0	0	0	528
7	0	0	0	0	521
8	0	0	0	0	523
9	0	0	0	0	534
10	0	0	0	0	535
11	0	0	0	0	539
12	0	0	0	0	543
13	0	0	0	0	553
14	0	0	0	0	561
15	0	0	0	0	574
0	0	0	0	0	585
1	0	0	0	0	587
2	0	0	0	0	593
3	0	0	0	0	591
4	0	0	0	0	563
5	0	0	0	0	522
6	0	0	0	0	482
7	0	0	0	0	463
8	0	0	0	0	452
9	0	0	0	0	445
10	0	0	0	0	456
11	0	0	0	0	468
12	0	0	0	0	463
13	0	0	0	0	471
14	0	0	0	0	471
15	0	0	0	0	493
0	0	0	0	0	489
1	0	0	0	0	499
2	0	0	0	0	496
3	0	0	0	0	495
4	0	0	0	0	507
5	0	0	0	0	496
6	0	0	0	0	508
7	0	0	0	0	506
8	0	0	0	0	512
9	0	0	0	0	514
10	0	0	0	0	510
11	0	0	0	0	515
12	0	0	0	0	513
13	0	0	0	0	520
14	0	0	0	0	517
15	0	0	0	0	519
0	0	0	0	0	523
1	0	0	0	0	529
2	0	0	0	0	520
3	0	0	0	0	520
4	0	0	0	0	521
5	0	0	0	0	527
6	0	0	0	0	520
7	0	0	0	0	523
8	0	0	0	0	530
9	0	0	0	0	541
10	0	0	0	0	540
11	0	0	0	0	551
12	0	0	0	0	555
13	0	0	0	0	554
14	0	0	0	0	546
15	0	0	0	0	547
0	0	0	0	0	527
1	0	0	0	0	519
2	0	0	0	0	505
3	0	0	0	0	507
4	0	0	0	0	513
5	0	0	0	0	519
6	0	0	0	0	514
7	0	0	0	0	517
8	0	0	0	0	470
9	0	0	0	0	494
10	0	0	0	0	703
11	0	0	0	0	943
12	0	0	0	0	520
13	0	0	0	0	284
14	0	0	0	0	374
15	0	0	0	0	470
0	0	0	0	0	505
1	0	0	0	0	516
2	0	0	0	0	512
3	0	0	0	0	534
4	0	0	0	0	532
5	0	0	0	0	534
6	0	0	0	0	538
7	0	0	0	0	535
8	0	0	0	0	543
9	0	0	0	0	548
10	0	0	0	0	540
11	0	0	0	0	551
12	0	0	0	0	548
13	0	0	0	0	559
14	0	0	0	0	568
15	0	0	0	0	581
0	0	0	0	0	575
1	0	0	0	0	585
2	0	0	0	0	603
3	0	0	0	0	612
4	0	0	0	0	614
5	0	0	0	0	588
6	0	0	0	0	550
7	0	0	0	0	500
8	0	0	0	0	473
9	0	0	0	0	452
10	0	0	0	0	449
11	0	0	0	0	448
12	0	0	0	0	444
13	0	0	0	0	458
14	0	0	0	0	461
15	0	0	0	0	474
0	0	0	0	0	474
1	0	0	0	0	489
2	0	0	0	0	491
3	0	0	0	0	488
4	0	0	0	0	495
5	0	0	0	0	489
6	0	0	0	0	498
7	0	0	0	0	500
8	0	0	0	0	497
9	0	0	0	0	502
10	0	0	0	0	497
11	0	0	0	0	499
12	0	0	0	0	504
13	0	0	0	0	503
14	0	0	0	0	509
15	0	0	0	0	506
0	0	0	0	0	507
1	0	0	0	0	501
2	0	0	0	0	508
3	0	0	0	0	511
4	0	0	0	0	515
5	0	0	0	0	513
6	0	0	0	0	520
7	0	0	0	0	529
8	0	0	0	0	539
9	0	0	0	0	531
10	0	0	0	0	528
11	0	0	0	0	531
12	0	0	0	0	521
13	0	0	0	0	494
14	0	0	0	0	494
15	0	0	0	0	496
0	0	0	0	0	488
1	0	0	0	0	494
2	0	0	0	0	486
3	0	0	0	0	489
4	0	0	0	0	493
5	0	0	0	0	439
6	0	0	0	0	549
7	0	0	0	0	826
8	0	0	0	0	801
9	0	0	0	0	315
10	0	0	0	0	310
11	0	0	0	0	417
12	0	0	0	0	470
13	0	0	0	0	475
14	0	0	0	0	483
15	0	0	0	0	495
0	0	0	0	0	506
1	0	0	0	0	511
2	0	0	0	0	506
3	0	0	0	0	519
4	0	0	0	0	519
5	0	0	0	0	512
6	0	0	0	0	517
7	0	0	0	0	510
8	0	0	0	0	515
9	0	0	0	0	537
10	0	0	0	0	537
11	0	0	0	0	533
12	0	0	0	0	550
13	0	0	0	0	568
14	0	0	0	0	565
15	0	0	0	0	578
0	0	0	0	0	576
1	0	0	0	0	568
2	0	0	0	0	550
3	0	0	0	0	507
4	0	0	0	0	463
5	0	0	0	0	448
6	0	0	0	0	434
7	0	0	0	0	432
8	0	0	0	0	436
9	0	0	0	0	446
10	0	0	0	0	448
11	0	0	0	0	460
12	0	0	0	0	467
13	0	0	0	0	477
14	0	0	0	0	469
15	0	0	0	0	481
0	0	0	0	0	484
1	0	0	0	0	487
2	0	0	0	0	490
3	0	0	0	0	495
4	0	0	0	0	489
5	0	0	0	0	500
6	0	0	0	0	493
7	0	0	0	0	503
8	0	0	0	0	497
9	0	0	0	0	502
10	0	0	0	0	507
11	0	0	0	0	502
12	0	0	0	0	516
13	0	0	0	0	515
14	0	0	0	0	516
15	0	0	0	0	512
0	0	0	0	0	515
1	0	0	0	0	504
2	0	0	0	0	513
3	0	0	0	0	524
4	0	0	0	0	521
5	0	0	0	0	524
6	0	0	0	0	527
7	0	0	0	0	542
8	0	0	0	0	544
9	0	0	0	0	532
10	0	0	0	0	535
11	0	0	0	0	515
12	0	0	0	0	507
13	0	0	0	0	495
14	0	0	0	0	492
15	0	0	0	0	495
0	0	0	0	0	505
1	0	0	0	0	506
2	0	0	0	0	504
3	0	0	0	0	471
4	0	0	0	0	478
5	0	0	0	0	672
6	0	0	0	0	927
7	0	0	0	0	593
8	0	0	0	0	276
9	0	0	0	0	364
10	0	0	0	0	459
11	0	0	0	0	487
12	0	0	0	0	488
13	0	0	0	0	499
14	0	0	0	0	507
15	0	0	0	0	504
0	0	0	0	0	514
1	0	0	0	0	528
2	0	0	0	0	521
3	0	0	0	0	524
4	0	0	0	0	530
5	0	0	0	0	529
6	0	0	0	0	535
7	0	0	0	0	528
8	0	0	0	0	544
9	0	0	0	0	545
10	0	0	0	0	550
11	0	0	0	0	566
12	0	0	0	0	581
13	0	0	0	0	583
14	0	0	0	0	591
15	0	0	0	0	593
0	0	0	0	0	582
1	0	0	0	0	543
2	0	0	0	0	505
3	0	0	0	0	476
4	0	0	0	0	454
5	0	0	0	0	458
6	0	0	0	0	454
7	0	0	0	0	460
8	0	0	0	0	470
9	0	0	0	0	474
10	0	0	0	0	475
11	0	0	0	0	482
12	0	0	0	0	496
13	0	0	0	0	504
14	0	0	0	0	515
15	0	0	0	0	508
0	0	0	0	0	510
1	0	0	0	0	513
2	0	0	0	0	515
3	0	0	0	0	516
4	0	0	0	0	522
5	0	0	0	0	521
6	0	0	0	0	524
7	0	0	0	0	528
8	0	0	0	0	538
9	0	0	0	0	538
10	0	0	0	0	540
11	0	0	0	0	535
12	0	0	0	0	547
13	0	0	0	0	541
14	0	0	0	0	538
15	0	0	0	0	544
0	0	0	0	0	543
1	0	0	0	0	537
2	0	0	0	0	550
3	0	0	0	0	546
4	0	0	0	0	539
5	0	0	0	0	536
6	0	0	0	0	544
7	0	0	0	0	551
8	0	0	0	0	556
9	0	0	0	0	562
10	0	0	0	0	571
11	0	0	0	0	568
12	0	0	0	0	567
13	0	0	0	0	551
14	0	0	0	0	530
15	0	0	0	0	521
0	0	0	0	0	515
1	0	0	0	0	512
2	0	0	0	0	511
3	0	0	0	0	513
4	0	0	0	0	513
5	0	0	0	0	512
6	0	0	0	0	488
7	0	0	0	0	477
8	0	0	0	0	657
9	0	0	0	0	931
10	0	0	0	0	652
11	0	0	0	0	275
12	0	0	0	0	360
13	0	0	0	0	451
14	0	0	0	0	484
15	0	0	0	0	488
0	0	0	0	0	500
1	0	0	0	0	502
2	0	0	0	0	510
3	0	0	0	0	504
4	0	0	0	0	510
5	0	0	0	0	509
6	0	0	0	0	510
7	0	0	0	0	515
8	0	0	0	0	517
9	0	0	0	0	520
10	0	0	0	0	518
11	0	0	0	0	526
12	0	0	0	0	524
13	0	0	0	0	537
14	0	0	0	0	545
15	0	0	0	0	552
0	0	0	0	0	556
1	0	0	0	0	572
2	0	0	0	0	577
3	0	0	0	0	560
4	0	0	0	0	529
5	0	0	0	0	489
6	0	0	0	0	452
7	0	0	0	0	439
8	0	0	0	0	420
9	0	0	0	0	419
10	0	0	0	0	427
11	0	0	0	0	438
12	0	0	0	0	433
13	0	0	0	0	449
14	0	0	0	0	455
15	0	0	0	0	452
0	0	0	0	0	461
1	0	0	0	0	466
2	0	0	0	0	474
3	0	0	0	0	463
4	0	0	0	0	476
5	0	0	0	0	475
6	0	0	0	0	474
7	0	0	0	0	480
8	0	0	0	0	491
9	0	0	0	0	486
10	0	0	0	0	490
11	0	0	0	0	482
12	0	0	0	0	492
13	0	0	0	0	496
14	0	0	0	0	502
15	0	0	0	0	499
0	0	0	0	0	499
1	0	0	0	0	496
2	0	0	0	0	505
3	0	0	0	0	497
4	0	0	0	0	506
5	0	0	0	0	492
6	0	0	0	0	503
7	0	0	0	0	499
8	0	0	0	0	512
9	0	0	0	0	506
10	0	0	0	0	508
11	0	0	0	0	516
12	0	0	0	0	523
13	0	0	0	0	526
14	0	0	0	0	539
15	0	0	0	0	526
0	0	0	0	0	524
1	0	0	0	0	507
2	0	0	0	0	493
3	0	0	0	0	484
4	0	0	0	0	488
5	0	0	0	0	491
6	0	0	0	0	487
7	0	0	0	0	484
8	0	0	0	0	490
9	0	0	0	0	483
10	0	0	0	0	446
11	0	0	0	0	506
12	0	0	0	0	782
13	0	0	0	0	877
14	0	0	0	0	345
15	0	0	0	0	273
0	0	0	0	0	381
1	0	0	0	0	467
2	0	0	0	0	487
3	0	0	0	0	496
4	0	0	0	0	507
5	0	0	0	0	506
6	0	0	0	0	506
7	0	0	0	0	511
8	0	0	0	0	517
9	0	0	0	0	521
10	0	0	0	0	516
11	0	0	0	0	519
12	0	0	0	0	520
13	0	0	0	0	531
14	0	0	0	0	537
15	0	0	0	0	531
0	0	0	0	0	541
1	0	0	0	0	548
2	0	0	0	0	567
3	0	0	0	0	571
4	0	0	0	0	586
5	0	0	0	0	595
6	0	0	0	0	589
7	0	0	0	0	562
8	0	0	0	0	524
9	0	0	0	0	479
10	0	0	0	0	455
11	0	0	0	0	440
12	0	0	0	0	438
13	0	0	0	0	436
14	0	0	0	0	443
15	0	0	0	0	438
0	0	0	0	0	460
1	0	0	0	0	469
2	0	0	0	0	472
3	0	0	0	0	478
4	0	0	0	0	487
5	0	0	0	0	486
6	0	0	0	0	492
7	0	0	0	0	490
8	0	0	0	0	494
9	0	0	0	0	495
10	0	0	0	0	502
11	0	0	0	0	504
12	0	0	0	0	510
13	0	0	0	0	510
14	0	0	0	0	512
15	0	0	0	0	509
0	0	0	0	0	512
1	0	0	0	0	512
2	0	0	0	0	511
3	0	0	0	0	514
4	0	0	0	0	526
5	0	0	0	0	520
6	0	0	0	0	518
7	0	0	0	0	521
8	0	0	0	0	519
9	0	0	0	0	524
10	0	0	0	0	524
11	0	0	0	0	535
12	0	0	0	0	547
13	0	0	0	0	545
14	0	0	0	0	536
15	0	0	0	0	547
0	0	0	0	0	532
1	0	0	0	0	523
2	0	0	0	0	498
3	0	0	0	0	498
4	0	0	0	0	505
5	0	0	0	0	503
6	0	0	0	0	503
7	0	0	0	0	509
8	0	0	0	0	509
9	0	0	0	0	470
10	0	0	0	0	477
11	0	0	0	0	681
12	0	0	0	0	915
13	0	0	0	0	581
14	0	0	0	0	280
15	0	0	0	0	359
0	0	0	0	0	463
1	0	0	0	0	487
2	0	0	0	0	497
3	0	0	0	0	512
4	0	0	0	0	518
5	0	0	0	0	519
6	0	0	0	0	522
7	0	0	0	0	520
8	0	0	0	0	519
9	0	0	0	0	526
10	0	0	0	0	531
11	0	0	0	0	520
12	0	0	0	0	538
13	0	0	0	0	536
14	0	0	0	0	534
15	0	0	0	0	545
0	0	0	0	0	552
1	0	0	0	0	562
2	0	0	0	0	577
3	0	0	0	0	587
4	0	0	0	0	587
5	0	0	0	0	596
6	0	0	0	0	578
7	0	0	0	0	536
8	0	0	0	0	502
9	0	0	0	0	475
10	0	0	0	0	453
11	0	0	0	0	451
12	0	0	0	0	443
13	0	0	0	0	450
14	0	0	0	0	450
15	0	0	0	0	456
0	0	0	0	0	472
1	0	0	0	0	480
2	0	0	0	0	480
3	0	0	0	0	483
4	0	0	0	0	487
5	0	0	0	0	490
6	0	0	0	0	495
7	0	0	0	0	492
8	0	0	0	0	504
9	0	0	0	0	498
10	0	0	0	0	502
11	0	0	0	0	500
12	0	0	0	0	508
13	0	0	0	0	507
14	0	0	0	0	515
15	0	0	0	0	507
0	0	0	0	0	512
1	0	0	0	0	512
2	0	0	0	0	515
3	0	0	0	0	518
4	0	0	0	0	522
5	0	0	0	0	513
6	0	0	0	0	521
7	0	0	0	0	522
8	0	0	0	0	523
9	0	0	0	0	522
10	0	0	0	0	525
11	0	0	0	0	524
12	0	0	0	0	532
13	0	0	0	0	541
14	0	0	0	0	556
15	0	0	0	0	536
0	0	0	0	0	540
1	0	0	0	0	532
2	0	0	0	0	513
3	0	0	0	0	497
4	0	0	0	0	499
5	0	0	0	0	497
6	0	0	0	0	494
7	0	0	0	0	502
8	0	0	0	0	503
9	0	0	0	0	504
10	0	0	0	0	452
11	0	0	0	0	510
12	0	0	0	0	779
13	0	0	0	0	911
14	0	0	0	0	399
15	0	0	0	0	293
0	0	0	0	0	395
1	0	0	0	0	477
2	0	0	0	0	497
3	0	0	0	0	492
4	0	0	0	0	501
5	0	0	0	0	506
6	0	0	0	0	512
7	0	0	0	0	512
8	0	0	0	0	519
9	0	0	0	0	520
10	0	0	0	0	524
11	0	0	0	0	526
12	0	0	0	0	527
13	0	0	0	0	528
14	0	0	0	0	530
15	0	0	0	0	536
0	0	0	0	0	539
1	0	0	0	0	555
2	0	0	0	0	563
3	0	0	0	0	576
4	0	0	0	0	577
5	0	0	0	0	583
6	0	0	0	0	584
7	0	0	0	0	565
8	0	0	0	0	531
9	0	0	0	0	482
10	0	0	0	0	463
11	0	0	0	0	444
12	0	0	0	0	444
13	0	0	0	0	438
14	0	0	0	0	455
15	0	0	0	0	459
0	0	0	0	0	463
1	0	0	0	0	462
2	0	0	0	0	477
3	0	0	0	0	481
4	0	0	0	0	484
5	0	0	0	0	485
6	0	0	0	0	494
7	0	0	0	0	489
8	0	0	0	0	499
9	0	0	0	0	493
10	0	0	0	0	500
11	0	0	0	0	498
12	0	0	0	0	506
13	0	0	0	0	503
14	0	0	0	0	513
15	0	0	0	0	509
0	0	0	0	0	509
1	0	0	0	0	508
2	0	0	0	0	514
3	0	0	0	0	508
4	0	0	0	0	521
5	0	0	0	0	514
6	0	0	0	0	510
7	0	0	0	0	518
8	0	0	0	0	525
9	0	0	0	0	512
10	0	0	0	0	529
11	0	0	0	0	513
12	0	0	0	0	520
13	0	0	0	0	512
14	0	0	0	0	516
15	0	0	0	0	524
0	0	0	0	0	526
1	0	0	0	0	530
2	0	0	0	0	532
3	0	0	0	0	532
4	0	0	0	0	547
5	0	0	0	0	544
6	0	0	0	0	543
7	0	0	0	0	535
8	0	0	0	0	523
9	0	0	0	0	502
10	0	0	0	0	500
11	0	0	0	0	492
12	0	0	0	0	504
13	0	0	0	0	500
14	0	0	0	0	497
15	0	0	0	0	501
0	0	0	0	0	488
1	0	0	0	0	455
2	0	0	0	0	605
3	0	0	0	0	893
4	0	0	0	0	705
5	0	0	0	0	286
6	0	0	0	0	331
7	0	0	0	0	435
8	0	0	0	0	476
9	0	0	0	0	485
10	0	0	0	0	502
11	0	0	0	0	499
12	0	0	0	0	503
13	0	0	0	0	518
14	0	0	0	0	508
15	0	0	0	0	527
0	0	0	0	0	518
1	0	0	0	0	512
2	0	0	0	0	521
3	0	0	0	0	531
4	0	0	0	0	532
5	0	0	0	0	520
6	0	0	0	0	539
7	0	0	0	0	546
8	0	0	0	0	555
9	0	0	0	0	562
10	0	0	0	0	575
11	0	0	0	0	588
12	0	0	0	0	592
13	0	0	0	0	580
14	0	0	0	0	559
15	0	0	0	0	507
0	0	0	0	0	483
1	0	0	0	0	451
2	0	0	0	0	443
3	0	0	0	0	436
4	0	0	0	0	454
5	0	0	0	0	452
6	0	0	0	0	452
7	0	0	0	0	462
8	0	0	0	0	459
9	0	0	0	0	463
10	0	0	0	0	485
11	0	0	0	0	484
12	0	0	0	0	487
13	0	0	0	0	490
14	0	0	0	0	498
15	0	0	0	0	486
0	0	0	0	0	492
1	0	0	0	0	495
2	0	0	0	0	500
3	0	0	0	0	499
4	0	0	0	0	507
5	0	0	0	0	513
6	0	0	0	0	508
7	0	0	0	0	511
8	0	0	0	0	515
9	0	0	0	0	506
10	0	0	0	0	515
11	0	0	0	0	513
12	0	0	0	0	514
13	0	0	0	0	515
14	0	0	0	0	512
15	0	0	0	0	524
0	0	0	0	0	522
1	0	0	0	0	525
2	0	0	0	0	528
3	0	0	0	0	543
4	0	0	0	0	555
5	0	0	0	0	545
6	0	0	0	0	538
7	0	0	0	0	524
8	0	0	0	0	503
9	0	0	0	0	495
10	0	0	0	0	500
11	0	0	0	0	496
12	0	0	0	0	502
13	0	0	0	0	495
14	0	0	0	0	506
15	0	0	0	0	499
0	0	0	0	0	452
1	0	0	0	0	520
2	0	0	0	0	782
3	0	0	0	0	879
4	0	0	0	0	361
5	0	0	0	0	285
6	0	0	0	0	389
7	0	0	0	0	478
8	0	0	0	0	497
9	0	0	0	0	512
10	0	0	0	0	513
11	0	0	0	0	516
12	0	0	0	0	516
13	0	0	0	0	520
14	0	0	0	0	518
15	0	0	0	0	529
0	0	0	0	0	526
1	0	0	0	0	528
2	0	0	0	0	530
3	0	0	0	0	536
4	0	0	0	0	537
5	0	0	0	0	541
6	0	0	0	0	552
7	0	0	0	0	555
8	0	0	0	0	569
9	0	0	0	0	582
10	0	0	0	0	591
11	0	0	0	0	588
12	0	0	0	0	583
13	0	0	0	0	563
14	0	0	0	0	517
15	0	0	0	0	477
0	0	0	0	0	451
1	0	0	0	0	439
2	0	0	0	0	435
3	0	0	0	0	433
4	0	0	0	0	443
5	0	0	0	0	447
6	0	0	0	0	455
7	0	0	0	0	467
8	0	0	0	0	470
9	0	0	0	0	471
10	0	0	0	0	478
11	0	0	0	0	480
12	0	0	0	0	492
13	0	0	0	0	488
14	0	0	0	0	499
15	0	0	0	0	493
0	0	0	0	0	508
1	0	0	0	0	506
2	0	0	0	0	505
3	0	0	0	0	509
4	0	0	0	0	519
5	0	0	0	0	509
6	0	0	0	0	504
7	0	0	0	0	508
8	0	0	0	0	511
9	0	0	0	0	510
10	0	0	0	0	517
11	0	0	0	0	524
12	0	0	0	0	509
13	0	0	0	0	517
14	0	0	0	0	516
15	0	0	0	0	517
0	0	0	0	0	525
1	0	0	0	0	524
2	0	0	0	0	526
3	0	0	0	0	537
4	0	0	0	0	548
5	0	0	0	0	539
6	0	0	0	0	537
7	0	0	0	0	529
8	0	0	0	0	514
9	0	0	0	0	496
10	0	0	0	0	489
11	0	0	0	0	499
12	0	0	0	0	502
13	0	0	0	0	503
14	0	0	0	0	509
15	0	0	0	0	496
0	0	0	0	0	455
1	0	0	0	0	552
2	0	0	0	0	823
3	0	0	0	0	855
4	0	0	0	0	338
5	0	0	0	0	297
6	0	0	0	0	417
7	0	0	0	0	479
8	0	0	0	0	488
9	0	0	0	0	502
10	0	0	0	0	502
11	0	0	0	0	506
12	0	0	0	0	518
13	0	0	0	0	506
14	0	0	0	0	519
15	0	0	0	0	522
0	0	0	0	0	525
1	0	0	0	0	523
2	0	0	0	0	522
3	0	0	0	0	526
4	0	0	0	0	535
5	0	0	0	0	540
6	0	0	0	0	545
7	0	0	0	0	553
8	0	0	0	0	561
9	0	0	0	0	575
10	0	0	0	0	583
11	0	0	0	0	590
12	0	0	0	0	585
13	0	0	0	0	555
14	0	0	0	0	526
15	0	0	0	0	481
0	0	0	0	0	457
1	0	0	0	0	448
2	0	0	0	0	443
3	0	0	0	0	455
4	0	0	0	0	454
5	0	0	0	0	464
6	0	0	0	0	469
7	0	0	0	0	472
8	0	0	0	0	470
9	0	0	0	0	476
10	0	0	0	0	489
11	0	0	0	0	494
12	0	0	0	0	497
13	0	0	0	0	500
14	0	0	0	0	503
15	0	0	0	0	492
0	0	0	0	0	505
1	0	0	0	0	503
2	0	0	0	0	511
3	0	0	0	0	509
4	0	0	0	0	508
5	0	0	0	0	514
6	0	0	0	0	521
7	0	0	0	0	510
8	0	0	0	0	518
9	0	0	0	0	511
10	0	0	0	0	522
11	0	0	0	0	525
12	0	0	0	0	516
13	0	0	0	0	523
14	0	0	0	0	519
15	0	0	0	0	525
0	0	0	0	0	528
1	0	0	0	0	528
2	0	0	0	0	524
3	0	0	0	0	541
4	0	0	0	0	542
5	0	0	0	0	544
6	0	0	0	0	543
7	0	0	0	0	545
8	0	0	0	0	534
9	0	0	0	0	516
10	0	0	0	0	499
11	0	0	0	0	496
12	0	0	0	0	515
13	0	0	0	0	499
14	0	0	0	0	508
15	0	0	0	0	499
0	0	0	0	0	510
1	0	0	0	0	451
2	0	0	0	0	520
3	0	0	0	0	782
4	0	0	0	0	912
5	0	0	0	0	390
6	0	0	0	0	290
7	0	0	0	0	396
8	0	0	0	0	467
9	0	0	0	0	491
10	0	0	0	0	501
11	0	0	0	0	508
12	0	0	0	0	510
13	0	0	0	0	507
14	0	0	0	0	513
15	0	0	0	0	517
0	0	0	0	0	525
1	0	0	0	0	516
2	0	0	0	0	526
3	0	0	0	0	522
4	0	0	0	0	530
5	0	0	0	0	524
6	0	0	0	0	536
7	0	0	0	0	546
8	0	0	0	0	552
9	0	0	0	0	553
10	0	0	0	0	575
11	0	0	0	0	580
12	0	0	0	0	582
13	0	0	0	0	581
14	0	0	0	0	560
15	0	0	0	0	530
0	0	0	0	0	489
1	0	0	0	0	455
2	0	0	0	0	443
3	0	0	0	0	441
4	0	0	0	0	441
5	0	0	0	0	447
6	0	0	0	0	451
7	0	0	0	0	458
8	0	0	0	0	466
9	0	0	0	0	474
10	0	0	0	0	482
11	0	0	0	0	481
12	0	0	0	0	483
13	0	0	0	0	489
14	0	0	0	0	482
15	0	0	0	0	490
0	0	0	0	0	499
1	0	0	0	0	491
2	0	0	0	0	499
3	0	0	0	0	507
4	0	0	0	0	505
5	0	0	0	0	499
6	0	0	0	0	506
7	0	0	0	0	506
8	0	0	0	0	504
9	0	0	0	0	506
10	0	0	0	0	516
11	0	0	0	0	515
12	0	0	0	0	501
13	0	0	0	0	509
14	0	0	0	0	511
15	0	0	0	0	518
0	0	0	0	0	514
1	0	0	0	0	514
2	0	0	0	0	512
3	0	0	0	0	518
4	0	0	0	0	519
5	0	0	0	0	530
6	0	0	0	0	535
7	0	0	0	0	537
8	0	0	0	0	534
9	0	0	0	0	536
10	0	0	0	0	526
11	0	0	0	0	507
12	0	0	0	0	490
13	0	0	0	0	486
14	0	0	0	0	492
15	0	0	0	0	498
0	0	0	0	0	497
1	0	0	0	0	489
2	0	0	0	0	493
3	0	0	0	0	451
4	0	0	0	0	547
5	0	0	0	0	828
6	0	0	0	0	847
7	0	0	0	0	309
8	0	0	0	0	294
9	0	0	0	0	409
10	0	0	0	0	471
11	0	0	0	0	486
12	0	0	0	0	498
13	0	0	0	0	501
14	0	0	0	0	514
15	0	0	0	0	511
0	0	0	0	0	512
1	0	0	0	0	513
2	0	0	0	0	521
3	0	0	0	0	520
4	0	0	0	0	516
5	0	0	0	0	525
6	0	0	0	0	534
7	0	0	0	0	533
8	0	0	0	0	542
9	0	0	0	0	536
10	0	0	0	0	555
11	0	0	0	0	560
12	0	0	0	0	573
13	0	0	0	0	585
14	0	0	0	0	582
15	0	0	0	0	580
0	0	0	0	0	563
1	0	0	0	0	519
2	0	0	0	0	481
3	0	0	0	0	457
4	0	0	0	0	436
5	0	0	0	0	437
6	0	0	0	0	441
7	0	0	0	0	445
8	0	0	0	0	448
9	0	0	0	0	459
10	0	0	0	0	470
11	0	0	0	0	472
12	0	0	0	0	481
13	0	0	0	0	480
14	0	0	0	0	485
15	0	0	0	0	492
0	0	0	0	0	485
1	0	0	0	0	488
2	0	0	0	0	493
3	0	0	0	0	496
4	0	0	0	0	497
5	0	0	0	0	508
6	0	0	0	0	503
7	0	0	0	0	510
8	0	0	0	0	508
9	0	0	0	0	513
10	0	0	0	0	513
11	0	0	0	0	514
12	0	0	0	0	510
13	0	0	0	0	515
14	0	0	0	0	511
15	0	0	0	0	519
0	0	0	0	0	520
1	0	0	0	0	519
2	0	0	0	0	520
3	0	0	0	0	527
4	0	0	0	0	540
5	0	0	0	0	534
6	0	0	0	0	549
7	0	0	0	0	531
8	0	0	0	0	542
9	0	0	0	0	540
10	0	0	0	0	518
11	0	0	0	0	505
12	0	0	0	0	497
13	0	0	0	0	503
14	0	0	0	0	496
15	0	0	0	0	502
0	0	0	0	0	497
1	0	0	0	0	502
2	0	0	0	0	468
3	0	0	0	0	476
4	0	0	0	0	705
5	0	0	0	0	923
6	0	0	0	0	466
7	0	0	0	0	267
8	0	0	0	0	361
9	0	0	0	0	468
10	0	0	0	0	488
11	0	0	0	0	500
12	0	0	0	0	516
13	0	0	0	0	511
14	0	0	0	0	519
15	0	0	0	0	522
0	0	0	0	0	524
1	0	0	0	0	517
2	0	0	0	0	529
3	0	0	0	0	527
4	0	0	0	0	532
5	0	0	0	0	533
6	0	0	0	0	537
7	0	0	0	0	538
8	0	0	0	0	549
9	0	0	0	0	556
10	0	0	0	0	565
11	0	0	0	0	576
12	0	0	0	0	591
13	0	0	0	0	600
14	0	0	0	0	587
15	0	0	0	0	570
0	0	0	0	0	540
1	0	0	0	0	492
2	0	0	0	0	457
3	0	0	0	0	434
4	0	0	0	0	432
5	0	0	0	0	444
6	0	0	0	0	441
7	0	0	0	0	457
8	0	0	0	0	451
9	0	0	0	0	463
10	0	0	0	0	464
11	0	0	0	0	471
12	0	0	0	0	480
13	0	0	0	0	478
14	0	0	0	0	484
15	0	0	0	0	487
0	0	0	0	0	493
1	0	0	0	0	493
2	0	0	0	0	502
3	0	0	0	0	502
4	0	0	0	0	499
5	0	0	0	0	513
6	0	0	0	0	502
7	0	0	0	0	511
8	0	0	0	0	512
9	0	0	0	0	515
10	0	0	0	0	513
11	0	0	0	0	510
12	0	0	0	0	516
13	0	0	0	0	516
14	0	0	0	0	514
15	0	0	0	0	523
0	0	0	0	0	530
1	0	0	0	0	524
2	0	0	0	0	527
3	0	0	0	0	548
4	0	0	0	0	542
5	0	0	0	0	546
6	0	0	0	0	534
7	0	0	0	0	522
8	0	0	0	0	503
9	0	0	0	0	493
10	0	0	0	0	505
11	0	0	0	0	502
12	0	0	0	0	502
13	0	0	0	0	500
14	0	0	0	0	503
15	0	0	0	0	481
0	0	0	0	0	466
1	0	0	0	0	639
2	0	0	0	0	911
3	0	0	0	0	651
4	0	0	0	0	274
5	0	0	0	0	338
6	0	0	0	0	453
7	0	0	0	0	483
8	0	0	0	0	495
9	0	0	0	0	504
10	0	0	0	0	508
11	0	0	0	0	517
12	0	0	0	0	518
13	0	0	0	0	519
14	0	0	0	0	517
15	0	0	0	0	525
0	0	0	0	0	523
1	0	0	0	0	534
2	0	0	0	0	518
3	0	0	0	0	531
4	0	0	0	0	535
5	0	0	0	0	542
6	0	0	0	0	546
7	0	0	0	0	559
8	0	0	0	0	568
9	0	0	0	0	575
10	0	0	0	0	587
11	0	0	0	0	588
12	0	0	0	0	577
13	0	0	0	0	545
14	0	0	0	0	502
15	0	0	0	0	464
0	0	0	0	0	451
1	0	0	0	0	437
2	0	0	0	0	442
3	0	0	0	0	452
4	0	0	0	0	454
5	0	0	0	0	457
6	0	0	0	0	464
7	0	0	0	0	474
8	0	0	0	0	481
9	0	0	0	0	477
10	0	0	0	0	480
11	0	0	0	0	483
12	0	0	0	0	487
13	0	0	0	0	497
14	0	0	0	0	500
15	0	0	0	0	494
0	0	0	0	0	499
1	0	0	0	0	501
2	0	0	0	0	499
3	0	0	0	0	504
4	0	0	0	0	507
5	0	0	0	0	514
6	0	0	0	0	505
7	0	0	0	0	514
8	0	0	0	0	512
9	0	0	0	0	516
10	0	0	0	0	513
11	0	0	0	0	520
12	0	0	0	0	514
13	0	0	0	0	522
14	0	0	0	0	527
15	0	0	0	0	523
0	0	0	0	0	533
1	0	0	0	0	550
2	0	0	0	0	543
3	0	0	0	0	537
4	0	0	0	0	536
5	0	0	0	0	524
6	0	0	0	0	510
7	0	0	0	0	502
8	0	0	0	0	496
9	0	0	0	0	495
10	0	0	0	0	495
11	0	0	0	0	501
12	0	0	0	0	501
13	0	0	0	0	486
14	0	0	0	0	466
15	0	0	0	0	616
0	0	0	0	0	902
1	0	0	0	0	705
2	0	0	0	0	284
3	0	0	0	0	327
4	0	0	0	0	445
5	0	0	0	0	479
6	0	0	0	0	498
7	0	0	0	0	501
8	0	0	0	0	508
9	0	0	0	0	503
10	0	0	0	0	508
11	0	0	0	0	522
12	0	0	0	0	518
13	0	0	0	0	527
14	0	0	0	0	525
15	0	0	0	0	523
0	0	0	0	0	529
1	0	0	0	0	520
2	0	0	0	0	534
3	0	0	0	0	544
4	0	0	0	0	551
5	0	0	0	0	554
6	0	0	0	0	566
7	0	0	0	0	579
8	0	0	0	0	583
9	0	0	0	0	588
10	0	0	0	0	582
11	0	0	0	0	540
12	0	0	0	0	503
13	0	0	0	0	477
14	0	0	0	0	452
15	0	0	0	0	441
0	0	0	0	0	446
1	0	0	0	0	446
2	0	0	0	0	452
3	0	0	0	0	452
4	0	0	0	0	464
5	0	0	0	0	474
6	0	0	0	0	480
7	0	0	0	0	486
8	0	0	0	0	486
9	0	0	0	0	486
10	0	0	0	0	496
11	0	0	0	0	493
12	0	0	0	0	491
13	0	0	0	0	496
14	0	0	0	0	497
15	0	0	0	0	505
0	0	0	0	0	511
1	0	0	0	0	504
2	0	0	0	0	499
3	0	0	0	0	512
4	0	0	0	0	514
5	0	0	0	0	509
6	0	0	0	0	515
7	0	0	0	0	514
8	0	0	0	0	515
9	0	0	0	0	518
10	0	0	0	0	520
11	0	0	0	0	514
12	0	0	0	0	524
13	0	0	0	0	521
14	0	0	0	0	519
15	0	0	0	0	517
0	0	0	0	0	520
1	0	0	0	0	536
2	0	0	0	0	529
3	0	0	0	0	541
4	0	0	0	0	549
5	0	0	0	0	540
6	0	0	0	0	541
7	0	0	0	0	521
8	0	0	0	0	505
9	0	0	0	0	496
10	0	0	0	0	497
11	0	0	0	0	494
12	0	0	0	0	494
13	0	0	0	0	503
14	0	0	0	0	510
15	0	0	0	0	491
0	0	0	0	0	460
1	0	0	0	0	603
2	0	0	0	0	884
3	0	0	0	0	745
4	0	0	0	0	289
5	0	0	0	0	321
6	0	0	0	0	431
7	0	0	0	0	481
8	0	0	0	0	491
9	0	0	0	0	501
10	0	0	0	0	501
11	0	0	0	0	505
12	0	0	0	0	512
13	0	0	0	0	522
14	0	0	0	0	520
15	0	0	0	0	526
0	0	0	0	0	519
1	0	0	0	0	524
2	0	0	0	0	527
3	0	0	0	0	535
4	0	0	0	0	533
5	0	0	0	0	539
6	0	0	0	0	544
7	0	0	0	0	559
8	0	0	0	0	567
9	0	0	0	0	577
10	0	0	0	0	587
11	0	0	0	0	581
12	0	0	0	0	586
13	0	0	0	0	559
14	0	0	0	0	518
15	0	0	0	0	481
0	0	0	0	0	446
1	0	0	0	0	448
2	0	0	0	0	441
3	0	0	0	0	433
4	0	0	0	0	450
5	0	0	0	0	461
6	0	0	0	0	462
7	0	0	0	0	466
8	0	0	0	0	468
9	0	0	0	0	483
10	0	0	0	0	487
11	0	0	0	0	478
12	0	0	0	0	492
13	0	0	0	0	490
14	0	0	0	0	494
15	0	0	0	0	496
0	0	0	0	0	493
1	0	0	0	0	497
2	0	0	0	0	500
3	0	0	0	0	510
4	0	0	0	0	501
5	0	0	0	0	510
6	0	0	0	0	509
7	0	0	0	0	509
8	0	0	0	0	510
9	0	0	0	0	512
10	0	0	0	0	516
11	0	0	0	0	515
12	0	0	0	0	513
13	0	0	0	0	523
14	0	0	0	0	524
15	0	0	0	0	531
0	0	0	0	0	526
1	0	0	0	0	540
2	0	0	0	0	536
3	0	0	0	0	543
4	0	0	0	0	532
5	0	0	0	0	517
6	0	0	0	0	500
7	0	0	0	0	496
8	0	0	0	0	501
9	0	0	0	0	496
10	0	0	0	0	497
11	0	0	0	0	499
12	0	0	0	0	508
13	0	0	0	0	465
14	0	0	0	0	461
15	0	0	0	0	668
0	0	0	0	0	922
1	0	0	0	0	533
2	0	0	0	0	266
3	0	0	0	0	346
4	0	0	0	0	461
5	0	0	0	0	497
6	0	0	0	0	496
7	0	0	0	0	502
8	0	0	0	0	508
9	0	0	0	0	523
10	0	0	0	0	531
11	0	0	0	0	521
12	0	0	0	0	527
13	0	0	0	0	517
14	0	0	0	0	516
15	0	0	0	0	534
0	0	0	0	0	547
1	0	0	0	0	549
2	0	0	0	0	539
3	0	0	0	0	543
4	0	0	0	0	564
5	0	0	0	0	567
6	0	0	0	0	583
7	0	0	0	0	590
8	0	0	0	0	594
9	0	0	0	0	586
10	0	0	0	0	577
11	0	0	0	0	534
12	0	0	0	0	493
13	0	0	0	0	454
14	0	0	0	0	433
15	0	0	0	0	429
0	0	0	0	0	435
1	0	0	0	0	436
2	0	0	0	0	447
3	0	0	0	0	459
4	0	0	0	0	455
5	0	0	0	0	459
6	0	0	0	0	470
7	0	0	0	0	476
8	0	0	0	0	482
9	0	0	0	0	483
10	0	0	0	0	492
11	0	0	0	0	486
12	0	0	0	0	499
13	0	0	0	0	489
14	0	0	0	0	496
15	0	0	0	0	507
0	0	0	0	0	504
1	0	0	0	0	505
2	0	0	0	0	507
3	0	0	0	0	504
4	0	0	0	0	509
5	0	0	0	0	512
6	0	0	0	0	521
7	0	0	0	0	516
8	0	0	0	0	524
9	0	0	0	0	526
10	0	0	0	0	522
11	0	0	0	0	537
12	0	0	0	0	555
13	0	0	0	0	545
14	0	0	0	0	543
15	0	0	0	0	538
0	0	0	0	0	503
1	0	0	0	0	498
2	0	0	0	0	515
3	0	0	0	0	505
4	0	0	0	0	497
5	0	0	0	0	504
6	0	0	0	0	500
7	0	0	0	0	506
8	0	0	0	0	460
9	0	0	0	0	503
10	0	0	0	0	751
11	0	0	0	0	871
12	0	0	0	0	409
13	0	0	0	0	331
14	0	0	0	0	417
15	0	0	0	0	476
0	0	0	0	0	497
1	0	0	0	0	494
2	0	0	0	0	511
3	0	0	0	0	520
4	0	0	0	0	515
5	0	0	0	0	519
6	0	0	0	0	521
7	0	0	0	0	505
8	0	0	0	0	523
9	0	0	0	0	521
10	0	0	0	0	525
11	0	0	0	0	532
12	0	0	0	0	535
13	0	0	0	0	547
14	0	0	0	0	550
15	0	0	0	0	554
0	0	0	0	0	556
1	0	0	0	0	570
2	0	0	0	0	585
3	0	0	0	0	589
4	0	0	0	0	586
5	0	0	0	0	556
6	0	0	0	0	521
7	0	0	0	0	495
8	0	0	0	0	457
9	0	0	0	0	454
10	0	0	0	0	447
11	0	0	0	0	459
12	0	0	0	0	461
13	0	0	0	0	470
14	0	0	0	0	485
15	0	0	0	0	480
0	0	0	0	0	482
1	0	0	0	0	500
2	0	0	0	0	490
3	0	0	0	0	495
4	0	0	0	0	507
5	0	0	0	0	502
6	0	0	0	0	508
7	0	0	0	0	516
8	0	0	0	0	507
9	0	0	0	0	513
10	0	0	0	0	518
11	0	0	0	0	526
12	0	0	0	0	522
13	0	0	0	0	521
14	0	0	0	0	514
15	0	0	0	0	531
0	0	0	0	0	529
1	0	0	0	0	527
2	0	0	0	0	524
3	0	0	0	0	531
4	0	0	0	0	531
5	0	0	0	0	535
6	0	0	0	0	544
7	0	0	0	0	553
8	0	0	0	0	560
9	0	0	0	0	552
10	0	0	0	0	544
11	0	0	0	0	535
12	0	0	0	0	524
13	0	0	0	0	524
14	0	0	0	0	502
15	0	0	0	0	509
0	0	0	0	0	510
1	0	0	0	0	509
2	0	0	0	0	508
3	0	0	0	0	500
4	0	0	0	0	454
5	0	0	0	0	578
6	0	0	0	0	824
7	0	0	0	0	787
8	0	0	0	0	335
9	0	0	0	0	347
10	0	0	0	0	440
11	0	0	0	0	494
12	0	0	0	0	508
13	0	0	0	0	498
14	0	0	0	0	510
15	0	0	0	0	513
0	0	0	0	0	518
1	0	0	0	0	512
2	0	0	0	0	517
3	0	0	0	0	523
4	0	0	0	0	521
5	0	0	0	0	525
6	0	0	0	0	533
7	0	0	0	0	533
8	0	0	0	0	527
9	0	0	0	0	537
10	0	0	0	0	538
11	0	0	0	0	550
12	0	0	0	0	566
13	0	0	0	0	568
14	0	0	0	0	576
15	0	0	0	0	572
0	0	0	0	0	570
1	0	0	0	0	550
2	0	0	0	0	501
3	0	0	0	0	480
4	0	0	0	0	461
5	0	0	0	0	440
6	0	0	0	0	447
7	0	0	0	0	455
8	0	0	0	0	462
9	0	0	0	0	466
10	0	0	0	0	472
11	0	0	0	0	478
12	0	0	0	0	480
13	0	0	0	0	482
14	0	0	0	0	485
15	0	0	0	0	502
0	0	0	0	0	497
1	0	0	0	0	503
2	0	0	0	0	497
3	0	0	0	0	498
4	0	0	0	0	500
5	0	0	0	0	500
6	0	0	0	0	518
7	0	0	0	0	511
8	0	0	0	0	508
9	0	0	0	0	506
10	0	0	0	0	511
11	0	0	0	0	520
12	0	0	0	0	507
13	0	0	0	0	513
14	0	0	0	0	514
15	0	0	0	0	513
0	0	0	0	0	513
1	0	0	0	0	522
2	0	0	0	0	527
3	0	0	0	0	530
4	0	0	0	0	544
5	0	0	0	0	529
6	0	0	0	0	533
7	0	0	0	0	518
8	0	0	0	0	496
9	0	0	0	0	484
10	0	0	0	0	484
11	0	0	0	0	485
12	0	0	0	0	482
13	0	0	0	0	484
14	0	0	0	0	485
15	0	0	0	0	472
0	0	0	0	0	436
1	0	0	0	0	551
2	0	0	0	0	792
3	0	0	0	0	758
4	0	0	0	0	302
5	0	0	0	0	310
6	0	0	0	0	416
7	0	0	0	0	458
8	0	0	0	0	469
9	0	0	0	0	477
10	0	0	0	0	478
11	0	0	0	0	477
12	0	0	0	0	471
13	0	0	0	0	484
14	0	0	0	0	484
15	0	0	0	0	493
0	0	0	0	0	480
1	0	0	0	0	492
2	0	0	0	0	487
3	0	0	0	0	502
4	0	0	0	0	495
5	0	0	0	0	511
6	0	0	0	0	513
7	0	0	0	0	523
8	0	0	0	0	543
9	0	0	0	0	542
10	0	0	0	0	541
11	0	0	0	0	544
12	0	0	0	0	542
13	0	0	0	0	515
14	0	0	0	0	489
15	0	0	0	0	456
0	0	0	0	0	423
1	0	0	0	0	420
2	0	0	0	0	423
3	0	0	0	0	432
4	0	0	0	0	447
5	0	0	0	0	442
6	0	0	0	0	453
7	0	0	0	0	459
8	0	0	0	0	455
9	0	0	0	0	463
10	0	0	0	0	475
11	0	0	0	0	470
12	0	0	0	0	476
13	0	0	0	0	482
14	0	0	0	0	483
15	0	0	0	0	481
0	0	0	0	0	488
1	0	0	0	0	483
2	0	0	0	0	487
3	0	0	0	0	496
4	0	0	0	0	498
5	0	0	0	0	502
6	0	0	0	0	501
7	0	0	0	0	502
8	0	0	0	0	503
9	0	0	0	0	504
10	0	0	0	0	505
11	0	0	0	0	504
12	0	0	0	0	526
13	0	0	0	0	522
14	0	0	0	0	527
15	0	0	0	0	536
0	0	0	0	0	540
1	0	0	0	0	534
2	0	0	0	0	532
3	0	0	0	0	532
4	0	0	0	0	515
5	0	0	0	0	491
6	0	0	0	0	486
7	0	0	0	0	495
8	0	0	0	0	497
9	0	0	0	0	504
10	0	0	0	0	508
11	0	0	0	0	493
12	0	0	0	0	456
13	0	0	0	0	581
14	0	0	0	0	842
15	0	0	0	0	737
0	0	0	0	0	316
1	0	0	0	0	360
2	0	0	0	0	454
3	0	0	0	0	488
4	0	0	0	0	498
5	0	0	0	0	501
6	0	0	0	0	511
7	0	0	0	0	510
8	0	0	0	0	519
9	0	0	0	0	520
10	0	0	0	0	530
11	0	0	0	0	524
12	0	0	0	0	532
13	0	0	0	0	532
14	0	0	0	0	518
15	0	0	0	0	537
0	0	0	0	0	535
1	0	0	0	0	537
2	0	0	0	0	553
3	0	0	0	0	564
4	0	0	0	0	574
5	0	0	0	0	576
6	0	0	0	0	582
7	0	0	0	0	586
8	0	0	0	0	578
9	0	0	0	0	551
10	0	0	0	0	515
11	0	0	0	0	476
12	0	0	0	0	452
13	0	0	0	0	450
14	0	0	0	0	456
15	0	0	0	0	463
0	0	0	0	0	460
1	0	0	0	0	472
2	0	0	0	0	486
3	0	0	0	0	477
4	0	0	0	0	486
5	0	0	0	0	490
6	0	0	0	0	485
7	0	0	0	0	496
8	0	0	0	0	499
9	0	0	0	0	510
10	0	0	0	0	509
11	0	0	0	0	510
12	0	0	0	0	505
13	0	0	0	0	511
14	0	0	0	0	510
15	0	0	0	0	510
0	0	0	0	0	516
1	0	0	0	0	527
2	0	0	0	0	515
3	0	0	0	0	519
4	0	0	0	0	524
5	0	0	0	0	515
6	0	0	0	0	527
7	0	0	0	0	531
8	0	0	0	0	537
9	0	0	0	0	540
10	0	0	0	0	554
11	0	0	0	0	559
12	0	0	0	0	552
13	0	0	0	0	547
14	0	0	0	0	527
15	0	0	0	0	507
0	0	0	0	0	504
1	0	0	0	0	505
2	0	0	0	0	509
3	0	0	0	0	512
4	0	0	0	0	505
5	0	0	0	0	507
6	0	0	0	0	495
7	0	0	0	0	457
8	0	0	0	0	583
9	0	0	0	0	875
10	0	0	0	0	739
11	0	0	0	0	312
12	0	0	0	0	359
13	0	0	0	0	457
14	0	0	0	0	498
15	0	0	0	0	504
0	0	0	0	0	509
1	0	0	0	0	512
2	0	0	0	0	522
3	0	0	0	0	535
4	0	0	0	0	528
5	0	0	0	0	532
6	0	0	0	0	532
7	0	0	0	0	535
8	0	0	0	0	535
9	0	0	0	0	539
10	0	0	0	0	539
11	0	0	0	0	545
12	0	0	0	0	556
13	0	0	0	0	557
14	0	0	0	0	564
15	0	0	0	0	575
0	0	0	0	0	575
1	0	0	0	0	588
2	0	0	0	0	592
3	0	0	0	0	582
4	0	0	0	0	551
5	0	0	0	0	515
6	0	0	0	0	482
7	0	0	0	0	448
8	0	0	0	0	445
9	0	0	0	0	445
10	0	0	0	0	457
11	0	0	0	0	458
12	0	0	0	0	468
13	0	0	0	0	485
14	0	0	0	0	475
15	0	0	0	0	478
0	0	0	0	0	479
1	0	0	0	0	496
2	0	0	0	0	495
3	0	0	0	0	494
4	0	0	0	0	500
5	0	0	0	0	505
6	0	0	0	0	499
7	0	0	0	0	503
8	0	0	0	0	508
9	0	0	0	0	511
10	0	0	0	0	512
11	0	0	0	0	514
12	0	0	0	0	520
13	0	0	0	0	525
14	0	0	0	0	515
15	0	0	0	0	514
0	0	0	0	0	510
1	0	0	0	0	516
2	0	0	0	0	535
3	0	0	0	0	535
4	0	0	0	0	533
5	0	0	0	0	543
6	0	0	0	0	549
7	0	0	0	0	547
8	0	0	0	0	539
9	0	0	0	0	513
10	0	0	0	0	507
11	0	0	0	0	502
12	0	0	0	0	500
13	0	0	0	0	505
14	0	0	0	0	497
15	0	0	0	0	497
0	0	0	0	0	501
1	0	0	0	0	489
2	0	0	0	0	451
3	0	0	0	0	569
4	0	0	0	0	861
5	0	0	0	0	775
6	0	0	0	0	303
7	0	0	0	0	327
8	0	0	0	0	433
9	0	0	0	0	487
10	0	0	0	0	500
11	0	0	0	0	501
12	0	0	0	0	518
13	0	0	0	0	519
14	0	0	0	0	521
15	0	0	0	0	511
0	0	0	0	0	524
1	0	0	0	0	526
2	0	0	0	0	525
3	0	0	0	0	531
4	0	0	0	0	529
5	0	0	0	0	534
6	0	0	0	0	535
7	0	0	0	0	544
8	0	0	0	0	551
9	0	0	0	0	566
10	0	0	0	0	567
11	0	0	0	0	579
12	0	0	0	0	587
13	0	0	0	0	587
14	0	0	0	0	573
15	0	0	0	0	548
0	0	0	0	0	505
1	0	0	0	0	469
2	0	0	0	0	452
3	0	0	0	0	445
4	0	0	0	0	444
5	0	0	0	0	443
6	0	0	0	0	449
7	0	0	0	0	462
8	0	0	0	0	464
9	0	0	0	0	473
10	0	0	0	0	473
11	0	0	0	0	481
12	0	0	0	0	485
13	0	0	0	0	490
14	0	0	0	0	492
15	0	0	0	0	507
0	0	0	0	0	486
1	0	0	0	0	503
2	0	0	0	0	498
3	0	0	0	0	512
4	0	0	0	0	505
5	0	0	0	0	504
6	0	0	0	0	511
7	0	0	0	0	500
8	0	0	0	0	512
9	0	0	0	0	517
10	0	0	0	0	510
11	0	0	0	0	514
12	0	0	0	0	520
13	0	0	0	0	524
14	0	0	0	0	528
15	0	0	0	0	535
0	0	0	0	0	540
1	0	0	0	0	541
2	0	0	0	0	543
3	0	0	0	0	529
4	0	0	0	0	508
5	0	0	0	0	498
6	0	0	0	0	496
7	0	0	0	0	496
8	0	0	0	0	487
9	0	0	0	0	498
10	0	0	0	0	503
11	0	0	0	0	492
12	0	0	0	0	460
13	0	0	0	0	576
14	0	0	0	0	882
15	0	0	0	0	745
0	0	0	0	0	289
1	0	0	0	0	321
2	0	0	0	0	436
3	0	0	0	0	490
4	0	0	0	0	500
5	0	0	0	0	506
6	0	0	0	0	507
7	0	0	0	0	511
8	0	0	0	0	515
9	0	0	0	0	514
10	0	0	0	0	521
11	0	0	0	0	529
12	0	0	0	0	529
13	0	0	0	0	518
14	0	0	0	0	543
15	0	0	0	0	537
0	0	0	0	0	534
1	0	0	0	0	543
2	0	0	0	0	548
3	0	0	0	0	560
4	0	0	0	0	569
5	0	0	0	0	587
6	0	0	0	0	586
7	0	0	0	0	583
8	0	0	0	0	583
9	0	0	0	0	550
10	0	0	0	0	503
11	0	0	0	0	471
12	0	0	0	0	446
13	0	0	0	0	439
14	0	0	0	0	443
15	0	0	0	0	450
0	0	0	0	0	446
1	0	0	0	0	463
2	0	0	0	0	462
3	0	0	0	0	478
4	0	0	0	0	472
5	0	0	0	0	477
6	0	0	0	0	485
7	0	0	0	0	487
8	0	0	0	0	490
9	0	0	0	0	497
10	0	0	0	0	506
11	0	0	0	0	493
12	0	0	0	0	501
13	0	0	0	0	501
14	0	0	0	0	496
15	0	0	0	0	518
0	0	0	0	0	513
1	0	0	0	0	519
2	0	0	0	0	529
3	0	0	0	0	542
4	0	0	0	0	536
5	0	0	0	0	533
6	0	0	0	0	534
7	0	0	0	0	515
8	0	0	0	0	503
9	0	0	0	0	492
10	0	0	0	0	496
11	0	0	0	0	496
12	0	0	0	0	499
13	0	0	0	0	495
14	0	0	0	0	499
15	0	0	0	0	459
0	0	0	0	0	478
1	0	0	0	0	698
2	0	0	0	0	930
3	0	0	0	0	469
4	0	0	0	0	282
5	0	0	0	0	368
6	0	0	0	0	463
7	0	0	0	0	497
8	0	0	0	0	508
9	0	0	0	0	512
10	0	0	0	0	519
11	0	0	0	0	515
12	0	0	0	0	514
13	0	0	0	0	526
14	0	0	0	0	526
15	0	0	0	0	529
0	0	0	0	0	527
1	0	0	0	0	534
2	0	0	0	0	536
3	0	0	0	0	534
4	0	0	0	0	548
5	0	0	0	0	546
6	0	0	0	0	551
7	0	0	0	0	585
8	0	0	0	0	583
9	0	0	0	0	587
10	0	0	0	0	596
11	0	0	0	0	585
12	0	0	0	0	550
13	0	0	0	0	517
14	0	0	0	0	476
15	0	0	0	0	458
0	0	0	0	0	436
1	0	0	0	0	444
2	0	0	0	0	446
3	0	0	0	0	442
4	0	0	0	0	455
5	0	0	0	0	455
6	0	0	0	0	467
7	0	0	0	0	476
8	0	0	0	0	479
9	0	0	0	0	479
10	0	0	0	0	476
11	0	0	0	0	490
12	0	0	0	0	491
13	0	0	0	0	502
14	0	0	0	0	504
15	0	0	0	0	500
0	0	0	0	0	509
1	0	0	0	0	512
2	0	0	0	0	511
3	0	0	0	0	518
4	0	0	0	0	527
5	0	0	0	0	530
6	0	0	0	0	545
7	0	0	0	0	545
8	0	0	0	0	540
9	0	0	0	0	536
10	0	0	0	0	518
11	0	0	0	0	508
12	0	0	0	0	500
13	0	0	0	0	496
14	0	0	0	0	495
15	0	0	0	0	499
0	0	0	0	0	502
1	0	0	0	0	496
2	0	0	0	0	466
3	0	0	0	0	472
4	0	0	0	0	693
5	0	0	0	0	923
6	0	0	0	0	519
7	0	0	0	0	295
8	0	0	0	0	391
9	0	0	0	0	474
10	0	0	0	0	490
11	0	0	0	0	494
12	0	0	0	0	505
13	0	0	0	0	511
14	0	0	0	0	512
15	0	0	0	0	522
0	0	0	0	0	521
1	0	0	0	0	528
2	0	0	0	0	526
3	0	0	0	0	529
4	0	0	0	0	534
5	0	0	0	0	536
6	0	0	0	0	535
7	0	0	0	0	540
8	0	0	0	0	550
9	0	0	0	0	559
10	0	0	0	0	566
11	0	0	0	0	575
12	0	0	0	0	583
13	0	0	0	0	589
14	0	0	0	0	582
15	0	0	0	0	559
0	0	0	0	0	517
1	0	0	0	0	488
2	0	0	0	0	467
3	0	0	0	0	450
4	0	0	0	0	446
5	0	0	0	0	453
6	0	0	0	0	460
7	0	0	0	0	464
8	0	0	0	0	469
9	0	0	0	0	478
10	0	0	0	0	479
11	0	0	0	0	484
12	0	0	0	0	495
13	0	0	0	0	489
14	0	0	0	0	500
15	0	0	0	0	497
0	0	0	0	0	500
1	0	0	0	0	507
2	0	0	0	0	509
3	0	0	0	0	509
4	0	0	0	0	503
5	0	0	0	0	515
6	0	0	0	0	520
7	0	0	0	0	527
8	0	0	0	0	534
9	0	0	0	0	539
10	0	0	0	0	553
11	0	0	0	0	555
12	0	0	0	0	550
13	0	0	0	0	534
14	0	0	0	0	524
15	0	0	0	0	507
0	0	0	0	0	499
1	0	0	0	0	496
2	0	0	0	0	501
3	0	0	0	0	500
4	0	0	0	0	513
5	0	0	0	0	505
6	0	0	0	0	452
7	0	0	0	0	500
8	0	0	0	0	754
9	0	0	0	0	919
10	0	0	0	0	414
11	0	0	0	0	306
12	0	0	0	0	401
13	0	0	0	0	478
14	0	0	0	0	494
15	0	0	0	0	498
0	0	0	0	0	493
1	0	0	0	0	506
2	0	0	0	0	514
3	0	0	0	0	512
4	0	0	0	0	518
5	0	0	0	0	515
6	0	0	0	0	515
7	0	0	0	0	519
8	0	0	0	0	524
9	0	0	0	0	527
10	0	0	0	0	537
11	0	0	0	0	530
12	0	0	0	0	543
13	0	0	0	0	547
14	0	0	0	0	553
15	0	0	0	0	565
0	0	0	0	0	572
1	0	0	0	0	576
2	0	0	0	0	567
3	0	0	0	0	547
4	0	0	0	0	498
5	0	0	0	0	461
6	0	0	0	0	443
7	0	0	0	0	428
8	0	0	0	0	433
9	0	0	0	0	432
10	0	0	0	0	439
11	0	0	0	0	450
12	0	0	0	0	459
13	0	0	0	0	462
14	0	0	0	0	463
15	0	0	0	0	472
0	0	0	0	0	475
1	0	0	0	0	477
2	0	0	0	0	480
3	0	0	0	0	475
4	0	0	0	0	481
5	0	0	0	0	492
6	0	0	0	0	482
7	0	0	0	0	488
8	0	0	0	0	495
9	0	0	0	0	484
10	0	0	0	0	494
11	0	0	0	0	495
12	0	0	0	0	502
13	0	0	0	0	503
14	0	0	0	0	510
15	0	0	0	0	520
0	0	0	0	0	520
1	0	0	0	0	530
2	0	0	0	0	531
3	0	0	0	0	532
4	0	0	0	0	530
5	0	0	0	0	517
6	0	0	0	0	491
7	0	0	0	0	485
8	0	0	0	0	489
9	0	0	0	0	480
10	0	0	0	0	490
11	0	0	0	0	491
12	0	0	0	0	494
13	0	0	0	0	470
14	0	0	0	0	449
15	0	0	0	0	609
0	0	0	0	0	908
1	0	0	0	0	644
2	0	0	0	0	279
3	0	0	0	0	334
4	0	0	0	0	451
5	0	0	0	0	485
6	0	0	0	0	494
7	0	0	0	0	498
8	0	0	0	0	508
9	0	0	0	0	514
10	0	0	0	0	505
11	0	0	0	0	518
12	0	0	0	0	519
13	0	0	0	0	519
14	0	0	0	0	520
15	0	0	0	0	531
0	0	0	0	0	530
1	0	0	0	0	527
2	0	0	0	0	537
3	0	0	0	0	543
4	0	0	0	0	553
5	0	0	0	0	566
6	0	0	0	0	574
7	0	0	0	0	579
8	0	0	0	0	588
9	0	0	0	0	596
10	0	0	0	0	563
11	0	0	0	0	534
12	0	0	0	0	487
13	0	0	0	0	461
14	0	0	0	0	447
15	0	0	0	0	440
0	0	0	0	0	441
1	0	0	0	0	448
2	0	0	0	0	451
3	0	0	0	0	459
4	0	0	0	0	470
5	0	0	0	0	472
6	0	0	0	0	479
7	0	0	0	0	483
8	0	0	0	0	487
9	0	0	0	0	492
10	0	0	0	0	494
11	0	0	0	0	495
12	0	0	0	0	494
13	0	0	0	0	501
14	0	0	0	0	504
15	0	0	0	0	499
0	0	0	0	0	510
1	0	0	0	0	505
2	0	0	0	0	500
3	0	0	0	0	513
4	0	0	0	0	516
5	0	0	0	0	516
6	0	0	0	0	519
7	0	0	0	0	519
8	0	0	0	0	536
9	0	0	0	0	542
10	0	0	0	0	544
11	0	0	0	0	540
12	0	0	0	0	544
13	0	0	0	0	529
14	0	0	0	0	511
15	0	0	0	0	496
0	0	0	0	0	492
1	0	0	0	0	500
2	0	0	0	0	505
3	0	0	0	0	509
4	0	0	0	0	510
5	0	0	0	0	490
6	0	0	0	0	458
7	0	0	0	0	555
8	0	0	0	0	847
9	0	0	0	0	785
10	0	0	0	0	314
11	0	0	0	0	319
12	0	0	0	0	442
13	0	0	0	0	487
14	0	0	0	0	508
15	0	0	0	0	511
0	0	0	0	0	511
1	0	0	0	0	518
2	0	0	0	0	517
3	0	0	0	0	525
4	0	0	0	0	528
5	0	0	0	0	527
6	0	0	0	0	534
7	0	0	0	0	532
8	0	0	0	0	531
9	0	0	0	0	534
10	0	0	0	0	532
11	0	0	0	0	550
12	0	0	0	0	550
13	0	0	0	0	567
14	0	0	0	0	576
15	0	0	0	0	582
0	0	0	0	0	588
1	0	0	0	0	586
2	0	0	0	0	573
3	0	0	0	0	548
4	0	0	0	0	502
5	0	0	0	0	471
6	0	0	0	0	449
7	0	0	0	0	441
8	0	0	0	0	444
9	0	0	0	0	453
10	0	0	0	0	455
11	0	0	0	0	467
12	0	0	0	0	468
13	0	0	0	0	476
14	0	0	0	0	482
15	0	0	0	0	481
0	0	0	0	0	492
1	0	0	0	0	486
2	0	0	0	0	491
3	0	0	0	0	501
4	0	0	0	0	500
5	0	0	0	0	502
6	0	0	0	0	507
7	0	0	0	0	510
8	0	0	0	0	505
9	0	0	0	0	512
10	0	0	0	0	515
11	0	0	0	0	503
12	0	0	0	0	515
13	0	0	0	0	508
14	0	0	0	0	519
15	0	0	0	0	526
0	0	0	0	0	534
1	0	0	0	0	530
2	0	0	0	0	541
3	0	0	0	0	539
4	0	0	0	0	543
5	0	0	0	0	539
6	0	0	0	0	531
7	0	0	0	0	518
8	0	0	0	0	507
9	0	0	0	0	494
10	0	0	0	0	499
11	0	0	0	0	486
12	0	0	0	0	503
13	0	0	0	0	516
14	0	0	0	0	498
15	0	0	0	0	449
0	0	0	0	0	508
1	0	0	0	0	782
2	0	0	0	0	904
3	0	0	0	0	387
4	0	0	0	0	319
5	0	0	0	0	415
6	0	0	0	0	483
7	0	0	0	0	481
8	0	0	0	0	500
9	0	0	0	0	493
10	0	0	0	0	523
11	0	0	0	0	510
12	0	0	0	0	510
13	0	0	0	0	524
14	0	0	0	0	513
15	0	0	0	0	517
0	0	0	0	0	529
1	0	0	0	0	523
2	0	0	0	0	523
3	0	0	0	0	541
4	0	0	0	0	544
5	0	0	0	0	560
6	0	0	0	0	548
7	0	0	0	0	559
8	0	0	0	0	583
9	0	0	0	0	583
10	0	0	0	0	576
11	0	0	0	0	562
12	0	0	0	0	569
13	0	0	0	0	509
14	0	0	0	0	485
15	0	0	0	0	445
0	0	0	0	0	447
1	0	0	0	0	439
2	0	0	0	0	442
3	0	0	0	0	449
4	0	0	0	0	442
5	0	0	0	0	463
6	0	0	0	0	479
7	0	0	0	0	469
8	0	0	0	0	514
9	0	0	0	0	459
10	0	0	0	0	473
11	0	0	0	0	475
12	0	0	0	0	481
13	0	0	0	0	468
14	0	0	0	0	495
15	0	0	0	0	518
0	0	0	0	0	479
1	0	0	0	0	513
2	0	0	0	0	502
3	0	0	0	0	498
4	0	0	0	0	492
5	0	0	0	0	539
6	0	0	0	0	515
7	0	0	0	0	511
8	0	0	0	0	504
9	0	0	0	0	516
10	0	0	0	0	512
11	0	0	0	0	537
12	0	0	0	0	533
13	0	0	0	0	528
14	0	0	0	0	535
15	0	0	0	0	539
0	0	0	0	0	545
1	0	0	0	0	569
2	0	0	0	0	521
3	0	0	0	0	528
4	0	0	0	0	505
5	0	0	0	0	485
6	0	0	0	0	499
7	0	0	0	0	506
8	0	0	0	0	508
9	0	0	0	0	493
10	0	0	0	0	504
11	0	0	0	0	474
12	0	0	0	0	460
13	0	0	0	0	640
14	0	0	0	0	923
15	0	0	0	0	672
0	0	0	0	0	306
1	0	0	0	0	348
2	0	0	0	0	456
3	0	0	0	0	477
4	0	0	0	0	493
5	0	0	0	0	505
6	0	0	0	0	489
7	0	0	0	0	508
8	0	0	0	0	518
9	0	0	0	0	483
10	0	0	0	0	537
11	0	0	0	0	518
12	0	0	0	0	516
13	0	0	0	0	526
14	0	0	0	0	536
15	0	0	0	0	530
0	0	0	0	0	541
1	0	0	0	0	556
2	0	0	0	0	554
3	0	0	0	0	551
4	0	0	0	0	579
5	0	0	0	0	592
6	0	0	0	0	587
7	0	0	0	0	581
8	0	0	0	0	569
9	0	0	0	0	546
10	0	0	0	0	490
11	0	0	0	0	476
12	0	0	0	0	441
13	0	0	0	0	440
14	0	0	0	0	441
15	0	0	0	0	444
0	0	0	0	0	444
1	0	0	0	0	461
2	0	0	0	0	466
3	0	0	0	0	467
4	0	0	0	0	476
5	0	0	0	0	486
6	0	0	0	0	478
7	0	0	0	0	483
8	0	0	0	0	501
9	0	0	0	0	487
10	0	0	0	0	502
11	0	0	0	0	494
12	0	0	0	0	489
13	0	0	0	0	503
14	0	0	0	0	512
15	0	0	0	0	511
0	0	0	0	0	508
1	0	0	0	0	513
2	0	0	0	0	505
3	0	0	0	0	516
4	0	0	0	0	522
5	0	0	0	0	536
6	0	0	0	0	544
7	0	0	0	0	538
8	0	0	0	0	537
9	0	0	0	0	539
10	0	0	0	0	525
11	0	0	0	0	508
12	0	0	0	0	497
13	0	0	0	0	505
14	0	0	0	0	492
15	0	0	0	0	493
0	0	0	0	0	512
1	0	0	0	0	504
2	0	0	0	0	502
3	0	0	0	0	455
4	0	0	0	0	547
5	0	0	0	0	823
6	0	0	0	0	799
7	0	0	0	0	320
8	0	0	0	0	282
9	0	0	0	0	411
10	0	0	0	0	499
11	0	0	0	0	521
12	0	0	0	0	511
13	0	0	0	0	518
14	0	0	0	0	542
15	0	0	0	0	531
0	0	0	0	0	545
1	0	0	0	0	551
2	0	0	0	0	543
3	0	0	0	0	552
4	0	0	0	0	538
5	0	0	0	0	528
6	0	0	0	0	535
7	0	0	0	0	553
8	0	0	0	0	547
9	0	0	0	0	569
10	0	0	0	0	577
11	0	0	0	0	586
12	0	0	0	0	615
13	0	0	0	0	615
14	0	0	0	0	629
15	0	0	0	0	609
0	0	0	0	0	572
1	0	0	0	0	525
2	0	0	0	0	485
3	0	0	0	0	478
4	0	0	0	0	451
5	0	0	0	0	461
6	0	0	0	0	472
7	0	0	0	0	476
8	0	0	0	0	482
9	0	0	0	0	483
10	0	0	0	0	495
11	0	0	0	0	492
12	0	0	0	0	513
13	0	0	0	0	511
14	0	0	0	0	511
15	0	0	0	0	498
0	0	0	0	0	522
1	0	0	0	0	531
2	0	0	0	0	528
3	0	0	0	0	517
4	0	0	0	0	533
5	0	0	0	0	547
6	0	0	0	0	527
7	0	0	0	0	529
8	0	0	0	0	531
9	0	0	0	0	521
10	0	0	0	0	527
11	0	0	0	0	507
12	0	0	0	0	556
13	0	0	0	0	533
14	0	0	0	0	533
15	0	0	0	0	549
0	0	0	0	0	561
1	0	0	0	0	534
2	0	0	0	0	538
3	0	0	0	0	513
4	0	0	0	0	526
5	0	0	0	0	499
6	0	0	0	0	500
7	0	0	0	0	498
8	0	0	0	0	486
9	0	0	0	0	505
10	0	0	0	0	502
11	0	0	0	0	484
12	0	0	0	0	443
13	0	0	0	0	580
14	0	0	0	0	873
15	0	0	0	0	754
0	0	0	0	0	291
1	0	0	0	0	307
2	0	0	0	0	422
3	0	0	0	0	464
4	0	0	0	0	467
5	0	0	0	0	479
6	0	0	0	0	481
7	0	0	0	0	477
8	0	0	0	0	505
9	0	0	0	0	504
10	0	0	0	0	503
11	0	0	0	0	503
12	0	0	0	0	496
13	0	0	0	0	510
14	0	0	0	0	502
15	0	0	0	0	507
0	0	0	0	0	514
1	0	0	0	0	510
2	0	0	0	0	530
3	0	0	0	0	537
4	0	0	0	0	552
5	0	0	0	0	568
6	0	0	0	0	573
7	0	0	0	0	567
8	0	0	0	0	554
9	0	0	0	0	520
10	0	0	0	0	474
11	0	0	0	0	445
12	0	0	0	0	428
13	0	0	0	0	412
14	0	0	0	0	420
15	0	0	0	0	435
0	0	0	0	0	434
1	0	0	0	0	434
2	0	0	0	0	460
3	0	0	0	0	454
4	0	0	0	0	460
5	0	0	0	0	460
6	0	0	0	0	485
7	0	0	0	0	469
8	0	0	0	0	476
9	0	0	0	0	487
10	0	0	0	0	481
11	0	0	0	0	487
12	0	0	0	0	480
13	0	0	0	0	480
14	0	0	0	0	494
15	0	0	0	0	492
0	0	0	0	0	492
1	0	0	0	0	487
2	0	0	0	0	498
3	0	0	0	0	501
4	0	0	0	0	508
5	0	0	0	0	524
6	0	0	0	0	523
7	0	0	0	0	512
8	0	0	0	0	523
9	0	0	0	0	487
10	0	0	0	0	484
11	0	0	0	0	469
12	0	0	0	0	471
13	0	0	0	0	467
14	0	0	0	0	465
15	0	0	0	0	473
0	0	0	0	0	469
1	0	0	0	0	476
2	0	0	0	0	413
3	0	0	0	0	503
4	0	0	0	0	797
5	0	0	0	0	863
6	0	0	0	0	339
7	0	0	0	0	285
8	0	0	0	0	364
9	0	0	0	0	439
10	0	0	0	0	447
11	0	0	0	0	457
12	0	0	0	0	471
13	0	0	0	0	481
14	0	0	0	0	467
15	0	0	0	0	486
0	0	0	0	0	486
1	0	0	0	0	503
2	0	0	0	0	497
3	0	0	0	0	495
4	0	0	0	0	501
5	0	0	0	0	497
6	0	0	0	0	512
7	0	0	0	0	518
8	0	0	0	0	518
9	0	0	0	0	537
10	0	0	0	0	547
11	0	0	0	0	560
12	0	0	0	0	564
13	0	0	0	0	565
14	0	0	0	0	563
15	0	0	0	0	514
0	0	0	0	0	496
1	0	0	0	0	445
2	0	0	0	0	436
3	0	0	0	0	417
4	0	0	0	0	432
5	0	0	0	0	435
6	0	0	0	0	438
7	0	0	0	0	447
8	0	0	0	0	468
9	0	0	0	0	469
10	0	0	0	0	473
11	0	0	0	0	480
12	0	0	0	0	479
13	0	0	0	0	481
14	0	0	0	0	501
15	0	0	0	0	502
0	0	0	0	0	502
1	0	0	0	0	500
2	0	0	0	0	509
3	0	0	0	0	510
4	0	0	0	0	510
5	0	0	0	0	515
6	0	0	0	0	524
7	0	0	0	0	513
8	0	0	0	0	524
9	0	0	0	0	520
10	0	0	0	0	539
11	0	0	0	0	536
12	0	0	0	0	543
13	0	0	0	0	563
14	0	0	0	0	554
15	0	0	0	0	547
0	0	0	0	0	526
1	0	0	0	0	514
2	0	0	0	0	515
3	0	0	0	0	509
4	0	0	0	0	520
5	0	0	0	0	503
6	0	0	0	0	536
7	0	0	0	0	511
8	0	0	0	0	504
9	0	0	0	0	455
10	0	0	0	0	595
11	0	0	0	0	890
12	0	0	0	0	745
13	0	0	0	0	331
14	0	0	0	0	325
15	0	0	0	0	422
0	0	0	0	0	497
1	0	0	0	0	511
2	0	0	0	0	514
3	0	0	0	0	515
4	0	0	0	0	544
5	0	0	0	0	548
6	0	0	0	0	555
7	0	0	0	0	529
8	0	0	0	0	515
9	0	0	0	0	534
10	0	0	0	0	527
11	0	0	0	0	543
12	0	0	0	0	548
13	0	0	0	0	559
14	0	0	0	0	566
15	0	0	0	0	567
0	0	0	0	0	574
1	0	0	0	0	602
2	0	0	0	0	603
3	0	0	0	0	602
4	0	0	0	0	608
5	0	0	0	0	591
6	0	0	0	0	536
7	0	0	0	0	488
8	0	0	0	0	452
9	0	0	0	0	434
10	0	0	0	0	434
11	0	0	0	0	456
12	0	0	0	0	442
13	0	0	0	0	449
14	0	0	0	0	459
15	0	0	0	0	461
0	0	0	0	0	465
1	0	0	0	0	469
2	0	0	0	0	492
3	0	0	0	0	488
4	0	0	0	0	498
5	0	0	0	0	495
6	0	0	0	0	497
7	0	0	0	0	500
8	0	0	0	0	517
9	0	0	0	0	508
10	0	0	0	0	522
11	0	0	0	0	512
12	0	0	0	0	530
13	0	0	0	0	532
14	0	0	0	0	516
15	0	0	0	0	519
0	0	0	0	0	523
1	0	0	0	0	526
2	0	0	0	0	518
3	0	0	0	0	528
4	0	0	0	0	567
5	0	0	0	0	550
6	0	0	0	0	537
7	0	0	0	0	534
8	0	0	0	0	496
9	0	0	0	0	500
10	0	0	0	0	484
11	0	0	0	0	500
12	0	0	0	0	510
13	0	0	0	0	507
14	0	0	0	0	511
15	0	0	0	0	504
0	0	0	0	0	455
1	0	0	0	0	574
2	0	0	0	0	855
3	0	0	0	0	775
4	0	0	0	0	353
5	0	0	0	0	326
6	0	0	0	0	440
7	0	0	0	0	484
8	0	0	0	0	488
9	0	0	0	0	493
10	0	0	0	0	509
11	0	0	0	0	510
12	0	0	0	0	525
13	0	0	0	0	508
14	0	0	0	0	528
15	0	0	0	0	511
0	0	0	0	0	527
1	0	0	0	0	540
2	0	0	0	0	519
3	0	0	0	0	535
4	0	0	0	0	545
5	0	0	0	0	542
6	0	0	0	0	549
7	0	0	0	0	572
8	0	0	0	0	564
9	0	0	0	0	600
10	0	0	0	0	595
11	0	0	0	0	575
12	0	0	0	0	568
13	0	0	0	0	544
14	0	0	0	0	501
15	0	0	0	0	465
0	0	0	0	0	454
1	0	0	0	0	443
2	0	0	0	0	448
3	0	0	0	0	453
4	0	0	0	0	452
5	0	0	0	0	467
6	0	0	0	0	479
7	0	0	0	0	484
8	0	0	0	0	472
9	0	0	0	0	490
10	0	0	0	0	503
11	0	0	0	0	508
12	0	0	0	0	500
13	0	0	0	0	506
14	0	0	0	0	488
15	0	0	0	0	505
0	0	0	0	0	494
1	0	0	0	0	508
2	0	0	0	0	511
3	0	0	0	0	515
4	0	0	0	0	527
5	0	0	0	0	516
6	0	0	0	0	523
7	0	0	0	0	527
8	0	0	0	0	545
9	0	0	0	0	554
10	0	0	0	0	553
11	0	0	0	0	542
12	0	0	0	0	543
13	0	0	0	0	514
14	0	0	0	0	506
15	0	0	0	0	508
0	0	0	0	0	508
1	0	0	0	0	507
2	0	0	0	0	507
3	0	0	0	0	506
4	0	0	0	0	499
5	0	0	0	0	460
6	0	0	0	0	640
7	0	0	0	0	928
8	0	0	0	0	713
9	0	0	0	0	317
10	0	0	0	0	357
11	0	0	0	0	449
12	0	0	0	0	490
13	0	0	0	0	494
14	0	0	0	0	505
15	0	0	0	0	506
0	0	0	0	0	522
1	0	0	0	0	523
2	0	0	0	0	524
3	0	0	0	0	521
4	0	0	0	0	535
5	0	0	0	0	529
6	0	0	0	0	537
7	0	0	0	0	543
8	0	0	0	0	555
9	0	0	0	0	565
10	0	0	0	0	569
11	0	0	0	0	578
12	0	0	0	0	601
13	0	0	0	0	589
14	0	0	0	0	600
15	0	0	0	0	612
0	0	0	0	0	612
1	0	0	0	0	581
2	0	0	0	0	564
3	0	0	0	0	519
4	0	0	0	0	497
5	0	0	0	0	475
6	0	0	0	0	476
7	0	0	0	0	483
8	0	0	0	0	475
9	0	0	0	0	483
10	0	0	0	0	484
11	0	0	0	0	493
12	0	0	0	0	504
13	0	0	0	0	504
14	0	0	0	0	509
15	0	0	0	0	519
0	0	0	0	0	523
1	0	0	0	0	512
2	0	0	0	0	508
3	0	0	0	0	509
4	0	0	0	0	513
5	0	0	0	0	508
6	0	0	0	0	522
7	0	0	0	0	524
8	0	0	0	0	519
9	0	0	0	0	517
10	0	0	0	0	527
11	0	0	0	0	546
12	0	0	0	0	529
13	0	0	0	0	529
14	0	0	0	0	526
15	0	0	0	0	516
0	0	0	0	0	492
1	0	0	0	0	494
2	0	0	0	0	482
3	0	0	0	0	478
4	0	0	0	0	472
5	0	0	0	0	475
6	0	0	0	0	494
7	0	0	0	0	439
8	0	0	0	0	459
9	0	0	0	0	694
10	0	0	0	0	894
11	0	0	0	0	438
12	0	0	0	0	251
13	0	0	0	0	334
14	0	0	0	0	442
15	0	0	0	0	466
0	0	0	0	0	477
1	0	0	0	0	495
2	0	0	0	0	486
3	0	0	0	0	501
4	0	0	0	0	504
5	0	0	0	0	488
6	0	0	0	0	500
7	0	0	0	0	495
8	0	0	0	0	492
9	0	0	0	0	502
10	0	0	0	0	500
11	0	0	0	0	515
12	0	0	0	0	518
13	0	0	0	0	531
14	0	0	0	0	542
15	0	0	0	0	532
0	0	0	0	0	551
1	0	0	0	0	567
2	0	0	0	0	576
3	0	0	0	0	572
4	0	0	0	0	519
5	0	0	0	0	481
6	0	0	0	0	449
7	0	0	0	0	408
8	0	0	0	0	414
9	0	0	0	0	409
10	0	0	0	0	418
11	0	0	0	0	429
12	0	0	0	0	428
13	0	0	0	0	446
14	0	0	0	0	448
15	0	0	0	0	460
0	0	0	0	0	462
1	0	0	0	0	473
2	0	0	0	0	475
3	0	0	0	0	473
4	0	0	0	0	484
5	0	0	0	0	492
6	0	0	0	0	484
7	0	0	0	0	495
8	0	0	0	0	499
9	0	0	0	0	499
10	0	0	0	0	513
11	0	0	0	0	517
12	0	0	0	0	514
13	0	0	0	0	524
14	0	0	0	0	529
15	0	0	0	0	540
0	0	0	0	0	539
1	0	0	0	0	536
2	0	0	0	0	515
3	0	0	0	0	502
4	0	0	0	0	496
5	0	0	0	0	494
6	0	0	0	0	503
7	0	0	0	0	503
8	0	0	0	0	502
9	0	0	0	0	502
10	0	0	0	0	454
11	0	0	0	0	541
12	0	0	0	0	823
13	0	0	0	0	853
14	0	0	0	0	365
15	0	0	0	0	329
0	0	0	0	0	413
1	0	0	0	0	482
2	0	0	0	0	494
3	0	0	0	0	502
4	0	0	0	0	512
5	0	0	0	0	511
6	0	0	0	0	517
7	0	0	0	0	518
8	0	0	0	0	531
9	0	0	0	0	534
10	0	0	0	0	526
11	0	0	0	0	536
12	0	0	0	0	539
13	0	0	0	0	537
14	0	0	0	0	538
15	0	0	0	0	548
0	0	0	0	0	555
1	0	0	0	0	573
2	0	0	0	0	563
3	0	0	0	0	575
4	0	0	0	0	582
5	0	0	0	0	575
6	0	0	0	0	572
7	0	0	0	0	545
8	0	0	0	0	499
9	0	0	0	0	469
10	0	0	0	0	458
11	0	0	0	0	439
12	0	0	0	0	442
13	0	0	0	0	453
14	0	0	0	0	462
15	0	0	0	0	464
0	0	0	0	0	476
1	0	0	0	0	482
2	0	0	0	0	482
3	0	0	0	0	481
4	0	0	0	0	499
5	0	0	0	0	491
6	0	0	0	0	492
7	0	0	0	0	498
8	0	0	0	0	507
9	0	0	0	0	497
10	0	0	0	0	503
11	0	0	0	0	502
12	0	0	0	0	510
13	0	0	0	0	509
14	0	0	0	0	519
15	0	0	0	0	529
0	0	0	0	0	543
1	0	0	0	0	536
2	0	0	0	0	534
3	0	0	0	0	537
4	0	0	0	0	511
5	0	0	0	0	501
6	0	0	0	0	492
7	0	0	0	0	489
8	0	0	0	0	504
9	0	0	0	0	491
10	0	0	0	0	507
11	0	0	0	0	503
12	0	0	0	0	455
13	0	0	0	0	488
14	0	0	0	0	728
15	0	0	0	0	913
0	0	0	0	0	501
1	0	0	0	0	299
2	0	0	0	0	394
3	0	0	0	0	466
4	0	0	0	0	486
5	0	0	0	0	486
6	0	0	0	0	499
7	0	0	0	0	509
8	0	0	0	0	516
9	0	0	0	0	513
10	0	0	0	0	529
11	0	0	0	0	519
12	0	0	0	0	522
13	0	0	0	0	523
14	0	0	0	0	532
15	0	0	0	0	536
0	0	0	0	0	538
1	0	0	0	0	540
2	0	0	0	0	538
3	0	0	0	0	556
4	0	0	0	0	568
5	0	0	0	0	580
6	0	0	0	0	580
7	0	0	0	0	584
8	0	0	0	0	573
9	0	0	0	0	554
10	0	0	0	0	512
11	0	0	0	0	481
12	0	0	0	0	465
13	0	0	0	0	451
14	0	0	0	0	453
15	0	0	0	0	453
0	0	0	0	0	463
1	0	0	0	0	467
2	0	0	0	0	473
3	0	0	0	0	478
4	0	0	0	0	491
5	0	0	0	0	489
6	0	0	0	0	488
7	0	0	0	0	490
8	0	0	0	0	489
9	0	0	0	0	499
10	0	0	0	0	502
11	0	0	0	0	503
12	0	0	0	0	502
13	0	0	0	0	500
14	0	0	0	0	516
15	0	0	0	0	524
0	0	0	0	0	520
1	0	0	0	0	537
2	0	0	0	0	545
3	0	0	0	0	545
4	0	0	0	0	556
5	0	0	0	0	540
6	0	0	0	0	513
7	0	0	0	0	504
8	0	0	0	0	502
9	0	0	0	0	504
10	0	0	0	0	502
11	0	0	0	0	502
12	0	0	0	0	508
13	0	0	0	0	506
14	0	0	0	0	452
15	0	0	0	0	506
0	0	0	0	0	775
1	0	0	0	0	922
2	0	0	0	0	425
3	0	0	0	0	305
4	0	0	0	0	405
5	0	0	0	0	473
6	0	0	0	0	493
7	0	0	0	0	503
8	0	0	0	0	511
9	0	0	0	0	511
10	0	0	0	0	512
11	0	0	0	0	522
12	0	0	0	0	518
13	0	0	0	0	527
14	0	0	0	0	529
15	0	0	0	0	528
0	0	0	0	0	533
1	0	0	0	0	533
2	0	0	0	0	536
3	0	0	0	0	544
4	0	0	0	0	557
5	0	0	0	0	560
6	0	0	0	0	580
7	0	0	0	0	575
8	0	0	0	0	592
9	0	0	0	0	578
10	0	0	0	0	586
11	0	0	0	0	547
12	0	0	0	0	511
13	0	0	0	0	480
14	0	0	0	0	460
15	0	0	0	0	447
0	0	0	0	0	456
1	0	0	0	0	458
2	0	0	0	0	464
3	0	0	0	0	474
4	0	0	0	0	480
5	0	0	0	0	481
6	0	0	0	0	485
7	0	0	0	0	492
8	0	0	0	0	498
9	0	0	0	0	499
10	0	0	0	0	501
11	0	0	0	0	512
12	0	0	0	0	501
13	0	0	0	0	510
14	0	0	0	0	515
15	0	0	0	0	511
0	0	0	0	0	512
1	0	0	0	0	518
2	0	0	0	0	521
3	0	0	0	0	524
4	0	0	0	0	533
5	0	0	0	0	534
6	0	0	0	0	544
7	0	0	0	0	554
8	0	0	0	0	548
9	0	0	0	0	546
10	0	0	0	0	535
11	0	0	0	0	512
12	0	0	0	0	505
13	0	0	0	0	493
14	0	0	0	0	501
15	0	0	0	0	505
0	0	0	0	0	504
1	0	0	0	0	504
2	0	0	0	0	492
3	0	0	0	0	460
4	0	0	0	0	609
5	0	0	0	0	898
6	0	0	0	0	723
7	0	0	0	0	301
8	0	0	0	0	356
9	0	0	0	0	450
10	0	0	0	0	489
11	0	0	0	0	496
12	0	0	0	0	519
13	0	0	0	0	509
14	0	0	0	0	515
15	0	0	0	0	517
0	0	0	0	0	527
1	0	0	0	0	519
2	0	0	0	0	525
3	0	0	0	0	525
4	0	0	0	0	535
5	0	0	0	0	533
6	0	0	0	0	538
7	0	0	0	0	540
8	0	0	0	0	543
9	0	0	0	0	553
10	0	0	0	0	567
11	0	0	0	0	589
12	0	0	0	0	585
13	0	0	0	0	588
14	0	0	0	0	583
15	0	0	0	0	573
0	0	0	0	0	538
1	0	0	0	0	495
2	0	0	0	0	469
3	0	0	0	0	453
4	0	0	0	0	455
5	0	0	0	0	452
6	0	0	0	0	451
7	0	0	0	0	465
8	0	0	0	0	473
9	0	0	0	0	479
10	0	0	0	0	484
11	0	0	0	0	487
12	0	0	0	0	483
13	0	0	0	0	489
14	0	0	0	0	501
15	0	0	0	0	496
0	0	0	0	0	503
1	0	0	0	0	498
2	0	0	0	0	508
3	0	0	0	0	505
4	0	0	0	0	513
5	0	0	0	0	517
6	0	0	0	0	511
7	0	0	0	0	526
8	0	0	0	0	512
9	0	0	0	0	533
10	0	0	0	0	533
11	0	0	0	0	548
12	0	0	0	0	553
13	0	0	0	0	554
14	0	0	0	0	544
15	0	0	0	0	516
0	0	0	0	0	516
1	0	0	0	0	501
2	0	0	0	0	497
3	0	0	0	0	502
4	0	0	0	0	498
5	0	0	0	0	499
6	0	0	0	0	505
7	0	0	0	0	474
8	0	0	0	0	469
9	0	0	0	0	655
10	0	0	0	0	932
11	0	0	0	0	567
12	0	0	0	0	278
13	0	0	0	0	351
14	0	0	0	0	472
15	0	0	0	0	500
0	0	0	0	0	506
1	0	0	0	0	511
2	0	0	0	0	520
3	0	0	0	0	522
4	0	0	0	0	527
5	0	0	0	0	531
6	0	0	0	0	530
7	0	0	0	0	529
8	0	0	0	0	530
9	0	0	0	0	536
10	0	0	0	0	541
11	0	0	0	0	540
12	0	0	0	0	540
13	0	0	0	0	551
14	0	0	0	0	559
15	0	0	0	0	570
0	0	0	0	0	582
1	0	0	0	0	585
2	0	0	0	0	591
3	0	0	0	0	580
4	0	0	0	0	563
5	0	0	0	0	519
6	0	0	0	0	486
7	0	0	0	0	455
8	0	0	0	0	440
9	0	0	0	0	438
10	0	0	0	0	444
11	0	0	0	0	446
12	0	0	0	0	448
13	0	0	0	0	460
14	0	0	0	0	471
15	0	0	0	0	460
0	0	0	0	0	480
1	0	0	0	0	480
2	0	0	0	0	490
3	0	0	0	0	487
4	0	0	0	0	490
5	0	0	0	0	487
6	0	0	0	0	496
7	0	0	0	0	492
8	0	0	0	0	502
9	0	0	0	0	504
10	0	0	0	0	506
11	0	0	0	0	504
12	0	0	0	0	520
13	0	0	0	0	518
14	0	0	0	0	529
15	0	0	0	0	539
0	0	0	0	0	532
1	0	0	0	0	534
2	0	0	0	0	529
3	0	0	0	0	513
4	0	0	0	0	490
5	0	0	0	0	491
6	0	0	0	0	497
7	0	0	0	0	490
8	0	0	0	0	496
9	0	0	0	0	502
10	0	0	0	0	492
11	0	0	0	0	448
12	0	0	0	0	548
13	0	0	0	0	841
14	0	0	0	0	778
15	0	0	0	0	317
0	0	0	0	0	311
1	0	0	0	0	431
2	0	0	0	0	490
3	0	0	0	0	491
4	0	0	0	0	508
5	0	0	0	0	508
6	0	0	0	0	514
7	0	0	0	0	519
8	0	0	0	0	526
9	0	0	0	0	520
10	0	0	0	0	529
11	0	0	0	0	523
12	0	0	0	0	529
13	0	0	0	0	536
14	0	0	0	0	530
15	0	0	0	0	533
0	0	0	0	0	544
1	0	0	0	0	543
2	0	0	0	0	564
3	0	0	0	0	577
4	0	0	0	0	578
5	0	0	0	0	578
6	0	0	0	0	578
7	0	0	0	0	557
8	0	0	0	0	526
9	0	0	0	0	496
10	0	0	0	0	455
11	0	0	0	0	443
12	0	0	0	0	441
13	0	0	0	0	429
14	0	0	0	0	449
15	0	0	0	0	455
0	0	0	0	0	464
1	0	0	0	0	465
2	0	0	0	0	473
3	0	0	0	0	473
4	0	0	0	0	480
5	0	0	0	0	485
6	0	0	0	0	489
7	0	0	0	0	487
8	0	0	0	0	495
9	0	0	0	0	500
10	0	0	0	0	498
11	0	0	0	0	506
12	0	0	0	0	503
13	0	0	0	0	496
14	0	0	0	0	514
15	0	0	0	0	513
0	0	0	0	0	527
1	0	0	0	0	530
2	0	0	0	0	540
3	0	0	0	0	534
4	0	0	0	0	536
5	0	0	0	0	529
6	0	0	0	0	512
7	0	0	0	0	493
8	0	0	0	0	492
9	0	0	0	0	495
10	0	0	0	0	493
11	0	0	0	0	496
12	0	0	0	0	500
13	0	0	0	0	500
14	0	0	0	0	455
15	0	0	0	0	494
0	0	0	0	0	732
1	0	0	0	0	910
2	0	0	0	0	451
3	0	0	0	0	299
4	0	0	0	0	396
5	0	0	0	0	468
6	0	0	0	0	489
7	0	0	0	0	497
8	0	0	0	0	503
9	0	0	0	0	508
10	0	0	0	0	514
11	0	0	0	0	514
12	0	0	0	0	520
13	0	0	0	0	526
14	0	0	0	0	524
15	0	0	0	0	520
0	0	0	0	0	526
1	0	0	0	0	530
2	0	0	0	0	536
3	0	0	0	0	540
4	0	0	0	0	549
5	0	0	0	0	551
6	0	0	0	0	567
7	0	0	0	0	562
8	0	0	0	0	577
9	0	0	0	0	581
10	0	0	0	0	575
11	0	0	0	0	541
12	0	0	0	0	512
13	0	0	0	0	479
