# OpenSignals Text File Format
# {"CC:78:AB:62:C7:8F":{"sensor":["RAW"],"device name":"CC:78:AB:62:C7:8F","column":["nSeq","I1","I2","O1","O2","A2"],"sync interval":2,"time":"13:11:14","comments":"","device connection":"BLECC:78:AB:62:C7:8F","channels":[2],"date":"2022-04-28","mode":0,"digital IO":[0,0,1,1],"firmware version":0,"device":"bitalino_rev","position":0,"sampling rate":100,"label":["A2"],"resolution":[10],"special":[{}]}}
# EndOfHeader
0	0	0	1	0	583
1	0	0	1	0	572
2	0	0	1	0	527
3	0	0	1	0	489
4	0	0	1	0	457
5	0	0	1	0	447
6	0	0	1	0	444
7	0	0	1	0	445
8	0	0	0	0	451
9	0	0	0	0	455
10	0	0	0	0	463
11	0	0	0	0	467
12	0	0	0	0	467
13	0	0	0	0	482
14	0	0	0	0	481
15	0	0	0	0	489
0	0	0	0	0	485
1	0	0	0	0	491
2	0	0	0	0	492
3	0	0	0	0	498
4	0	0	0	0	499
5	0	0	0	0	499
6	0	0	0	0	503
7	0	0	0	0	513
8	0	0	0	0	507
9	0	0	0	0	509
10	0	0	0	0	507
11	0	0	0	0	512
12	0	0	0	0	515
13	0	0	0	0	512
14	0	0	0	0	515
15	0	0	0	0	512
0	0	0	0	0	519
1	0	0	0	0	514
2	0	0	0	0	519
3	0	0	0	0	527
4	0	0	0	0	525
5	0	0	0	0	529
6	0	0	0	0	539
7	0	0	0	0	550
8	0	0	0	0	549
9	0	0	0	0	544
10	0	0	0	0	535
11	0	0	0	0	512
12	0	0	0	0	497
13	0	0	0	0	496
14	0	0	0	0	496
15	0	0	0	0	488
0	0	0	0	0	500
1	0	0	0	0	504
2	0	0	0	0	503
3	0	0	0	0	453
4	0	0	0	0	520
5	0	0	0	0	821
6	0	0	0	0	899
7	0	0	0	0	336
8	0	0	0	0	284
9	0	0	0	0	404
10	0	0	0	0	474
11	0	0	0	0	493
12	0	0	0	0	500
13	0	0	0	0	503
14	0	0	0	0	508
15	0	0	0	0	515
0	0	0	0	0	517
1	0	0	0	0	520
2	0	0	0	0	519
3	0	0	0	0	519
4	0	0	0	0	528
5	0	0	0	0	531
6	0	0	0	0	534
7	0	0	0	0	537
8	0	0	0	0	542
9	0	0	0	0	553
10	0	0	0	0	556
11	0	0	0	0	568
12	0	0	0	0	579
13	0	0	0	0	583
14	0	0	0	0	594
15	0	0	0	0	583
0	0	0	0	0	554
1	0	0	0	0	512
2	0	0	0	0	484
3	0	0	0	0	446
4	0	0	0	0	441
5	0	0	0	0	433
6	0	0	0	0	445
7	0	0	0	0	448
8	0	0	0	0	461
9	0	0	0	0	461
10	0	0	0	0	469
11	0	0	0	0	470
12	0	0	0	0	470
13	0	0	0	0	479
14	0	0	0	0	492
15	0	0	0	0	489
0	0	0	0	0	489
1	0	0	0	0	495
2	0	0	0	0	497
3	0	0	0	0	493
4	0	0	0	0	497
5	0	0	0	0	508
6	0	0	0	0	502
7	0	0	0	0	509
8	0	0	0	0	508
9	0	0	0	0	509
10	0	0	0	0	508
11	0	0	0	0	508
12	0	0	0	0	515
13	0	0	0	0	514
14	0	0	0	0	519
15	0	0	0	0	519
0	0	0	0	0	515
1	0	0	0	0	516
2	0	0	0	0	521
3	0	0	0	0	524
4	0	0	0	0	532
5	0	0	0	0	542
6	0	0	0	0	547
7	0	0	0	0	544
8	0	0	0	0	544
9	0	0	0	0	524
10	0	0	0	0	517
11	0	0	0	0	494
12	0	0	0	0	497
13	0	0	0	0	497
14	0	0	0	0	499
15	0	0	0	0	501
0	0	0	0	0	507
1	0	0	0	0	492
2	0	0	0	0	444
3	0	0	0	0	552
4	0	0	0	0	860
5	0	0	0	0	820
6	0	0	0	0	295
7	0	0	0	0	286
8	0	0	0	0	421
9	0	0	0	0	487
10	0	0	0	0	498
11	0	0	0	0	499
12	0	0	0	0	514
13	0	0	0	0	512
14	0	0	0	0	510
15	0	0	0	0	521
0	0	0	0	0	523
1	0	0	0	0	524
2	0	0	0	0	531
3	0	0	0	0	527
4	0	0	0	0	532
5	0	0	0	0	537
6	0	0	0	0	539
7	0	0	0	0	546
8	0	0	0	0	556
9	0	0	0	0	571
10	0	0	0	0	574
11	0	0	0	0	583
12	0	0	0	0	588
13	0	0	0	0	593
14	0	0	0	0	585
15	0	0	0	0	551
0	0	0	0	0	499
1	0	0	0	0	468
2	0	0	0	0	448
3	0	0	0	0	436
4	0	0	0	0	430
5	0	0	0	0	432
6	0	0	0	0	439
7	0	0	0	0	457
8	0	0	0	0	467
9	0	0	0	0	465
10	0	0	0	0	473
11	0	0	0	0	479
12	0	0	0	0	481
13	0	0	0	0	479
14	0	0	0	0	492
15	0	0	0	0	490
0	0	0	0	0	501
1	0	0	0	0	496
2	0	0	0	0	505
3	0	0	0	0	505
4	0	0	0	0	506
5	0	0	0	0	509
6	0	0	0	0	511
7	0	0	0	0	505
8	0	0	0	0	514
9	0	0	0	0	505
10	0	0	0	0	521
11	0	0	0	0	519
12	0	0	0	0	528
13	0	0	0	0	522
14	0	0	0	0	531
15	0	0	0	0	547
0	0	0	0	0	548
1	0	0	0	0	550
2	0	0	0	0	538
3	0	0	0	0	529
4	0	0	0	0	512
5	0	0	0	0	497
6	0	0	0	0	499
7	0	0	0	0	499
8	0	0	0	0	503
9	0	0	0	0	503
10	0	0	0	0	506
11	0	0	0	0	478
12	0	0	0	0	460
13	0	0	0	0	625
14	0	0	0	0	916
15	0	0	0	0	674
0	0	0	0	0	270
1	0	0	0	0	329
2	0	0	0	0	452
3	0	0	0	0	493
4	0	0	0	0	504
5	0	0	0	0	510
6	0	0	0	0	509
7	0	0	0	0	516
8	0	0	0	0	524
9	0	0	0	0	515
10	0	0	0	0	523
11	0	0	0	0	532
12	0	0	0	0	535
13	0	0	0	0	531
14	0	0	0	0	534
15	0	0	0	0	540
0	0	0	0	0	546
1	0	0	0	0	543
2	0	0	0	0	557
3	0	0	0	0	570
4	0	0	0	0	575
5	0	0	0	0	591
6	0	0	0	0	583
7	0	0	0	0	584
8	0	0	0	0	576
9	0	0	0	0	531
10	0	0	0	0	495
11	0	0	0	0	459
12	0	0	0	0	441
13	0	0	0	0	434
14	0	0	0	0	439
15	0	0	0	0	449
0	0	0	0	0	454
1	0	0	0	0	465
2	0	0	0	0	465
3	0	0	0	0	476
4	0	0	0	0	481
5	0	0	0	0	478
6	0	0	0	0	480
7	0	0	0	0	487
8	0	0	0	0	487
9	0	0	0	0	487
10	0	0	0	0	499
11	0	0	0	0	497
12	0	0	0	0	501
13	0	0	0	0	503
14	0	0	0	0	504
15	0	0	0	0	509
0	0	0	0	0	508
1	0	0	0	0	510
2	0	0	0	0	510
3	0	0	0	0	511
4	0	0	0	0	513
5	0	0	0	0	516
6	0	0	0	0	521
7	0	0	0	0	529
8	0	0	0	0	536
9	0	0	0	0	539
10	0	0	0	0	542
11	0	0	0	0	544
12	0	0	0	0	530
13	0	0	0	0	512
14	0	0	0	0	500
15	0	0	0	0	492
0	0	0	0	0	492
1	0	0	0	0	496
2	0	0	0	0	499
3	0	0	0	0	499
4	0	0	0	0	496
5	0	0	0	0	446
6	0	0	0	0	515
7	0	0	0	0	793
8	0	0	0	0	924
9	0	0	0	0	368
10	0	0	0	0	281
11	0	0	0	0	392
12	0	0	0	0	474
13	0	0	0	0	488
14	0	0	0	0	499
15	0	0	0	0	499
0	0	0	0	0	510
1	0	0	0	0	513
2	0	0	0	0	517
3	0	0	0	0	515
4	0	0	0	0	525
5	0	0	0	0	524
6	0	0	0	0	523
7	0	0	0	0	528
8	0	0	0	0	539
9	0	0	0	0	536
10	0	0	0	0	540
11	0	0	0	0	553
12	0	0	0	0	561
13	0	0	0	0	571
14	0	0	0	0	578
15	0	0	0	0	580
0	0	0	0	0	587
1	0	0	0	0	582
2	0	0	0	0	544
3	0	0	0	0	507
4	0	0	0	0	481
5	0	0	0	0	452
6	0	0	0	0	437
7	0	0	0	0	436
8	0	0	0	0	443
9	0	0	0	0	447
10	0	0	0	0	450
11	0	0	0	0	461
12	0	0	0	0	467
13	0	0	0	0	473
14	0	0	0	0	486
15	0	0	0	0	480
0	0	0	0	0	483
1	0	0	0	0	489
2	0	0	0	0	494
3	0	0	0	0	497
4	0	0	0	0	502
5	0	0	0	0	499
6	0	0	0	0	495
7	0	0	0	0	497
8	0	0	0	0	504
9	0	0	0	0	505
10	0	0	0	0	506
11	0	0	0	0	504
12	0	0	0	0	511
13	0	0	0	0	516
14	0	0	0	0	531
15	0	0	0	0	534
0	0	0	0	0	544
1	0	0	0	0	554
2	0	0	0	0	539
3	0	0	0	0	535
4	0	0	0	0	522
5	0	0	0	0	501
6	0	0	0	0	504
7	0	0	0	0	497
8	0	0	0	0	496
9	0	0	0	0	496
10	0	0	0	0	492
11	0	0	0	0	489
12	0	0	0	0	504
13	0	0	0	0	450
14	0	0	0	0	571
15	0	0	0	0	871
0	0	0	0	0	813
1	0	0	0	0	306
2	0	0	0	0	312
3	0	0	0	0	426
4	0	0	0	0	479
5	0	0	0	0	494
6	0	0	0	0	503
7	0	0	0	0	509
8	0	0	0	0	507
9	0	0	0	0	513
10	0	0	0	0	519
11	0	0	0	0	521
12	0	0	0	0	527
13	0	0	0	0	525
14	0	0	0	0	528
15	0	0	0	0	527
0	0	0	0	0	529
1	0	0	0	0	541
2	0	0	0	0	544
3	0	0	0	0	549
4	0	0	0	0	560
5	0	0	0	0	580
6	0	0	0	0	578
7	0	0	0	0	594
8	0	0	0	0	591
9	0	0	0	0	583
10	0	0	0	0	543
11	0	0	0	0	500
12	0	0	0	0	465
13	0	0	0	0	440
14	0	0	0	0	437
15	0	0	0	0	442
0	0	0	0	0	444
1	0	0	0	0	455
2	0	0	0	0	462
3	0	0	0	0	460
4	0	0	0	0	469
5	0	0	0	0	473
6	0	0	0	0	484
7	0	0	0	0	485
8	0	0	0	0	482
9	0	0	0	0	495
10	0	0	0	0	496
11	0	0	0	0	491
12	0	0	0	0	498
13	0	0	0	0	501
14	0	0	0	0	499
15	0	0	0	0	501
0	0	0	0	0	504
1	0	0	0	0	511
2	0	0	0	0	508
3	0	0	0	0	507
4	0	0	0	0	518
5	0	0	0	0	515
6	0	0	0	0	526
7	0	0	0	0	527
8	0	0	0	0	540
9	0	0	0	0	550
10	0	0	0	0	536
11	0	0	0	0	542
12	0	0	0	0	529
13	0	0	0	0	512
14	0	0	0	0	500
15	0	0	0	0	498
0	0	0	0	0	496
1	0	0	0	0	502
2	0	0	0	0	498
3	0	0	0	0	494
4	0	0	0	0	498
5	0	0	0	0	455
6	0	0	0	0	511
7	0	0	0	0	774
8	0	0	0	0	901
9	0	0	0	0	362
10	0	0	0	0	266
11	0	0	0	0	389
12	0	0	0	0	482
13	0	0	0	0	503
14	0	0	0	0	511
15	0	0	0	0	519
0	0	0	0	0	518
1	0	0	0	0	521
2	0	0	0	0	535
3	0	0	0	0	538
4	0	0	0	0	530
5	0	0	0	0	531
6	0	0	0	0	540
7	0	0	0	0	548
8	0	0	0	0	540
9	0	0	0	0	542
10	0	0	0	0	568
11	0	0	0	0	560
12	0	0	0	0	579
13	0	0	0	0	584
14	0	0	0	0	603
15	0	0	0	0	606
0	0	0	0	0	608
1	0	0	0	0	600
2	0	0	0	0	562
3	0	0	0	0	518
4	0	0	0	0	477
5	0	0	0	0	450
6	0	0	0	0	432
7	0	0	0	0	436
8	0	0	0	0	448
9	0	0	0	0	463
10	0	0	0	0	457
11	0	0	0	0	468
12	0	0	0	0	480
13	0	0	0	0	480
14	0	0	0	0	482
15	0	0	0	0	491
0	0	0	0	0	487
1	0	0	0	0	499
2	0	0	0	0	502
3	0	0	0	0	505
4	0	0	0	0	504
5	0	0	0	0	500
6	0	0	0	0	507
7	0	0	0	0	504
8	0	0	0	0	521
9	0	0	0	0	513
10	0	0	0	0	523
11	0	0	0	0	515
12	0	0	0	0	527
13	0	0	0	0	525
14	0	0	0	0	529
15	0	0	0	0	535
0	0	0	0	0	551
1	0	0	0	0	545
2	0	0	0	0	553
3	0	0	0	0	539
4	0	0	0	0	514
5	0	0	0	0	502
6	0	0	0	0	501
7	0	0	0	0	509
8	0	0	0	0	502
9	0	0	0	0	506
10	0	0	0	0	507
11	0	0	0	0	499
12	0	0	0	0	455
13	0	0	0	0	518
14	0	0	0	0	804
15	0	0	0	0	875
0	0	0	0	0	372
1	0	0	0	0	320
2	0	0	0	0	413
3	0	0	0	0	487
4	0	0	0	0	496
5	0	0	0	0	508
6	0	0	0	0	510
7	0	0	0	0	517
8	0	0	0	0	522
9	0	0	0	0	520
10	0	0	0	0	524
11	0	0	0	0	531
12	0	0	0	0	530
13	0	0	0	0	530
14	0	0	0	0	525
15	0	0	0	0	532
0	0	0	0	0	539
1	0	0	0	0	532
2	0	0	0	0	554
3	0	0	0	0	563
4	0	0	0	0	571
5	0	0	0	0	583
6	0	0	0	0	582
7	0	0	0	0	578
8	0	0	0	0	571
9	0	0	0	0	540
10	0	0	0	0	496
11	0	0	0	0	466
12	0	0	0	0	448
13	0	0	0	0	439
14	0	0	0	0	441
15	0	0	0	0	449
0	0	0	0	0	446
1	0	0	0	0	450
2	0	0	0	0	474
3	0	0	0	0	472
4	0	0	0	0	487
5	0	0	0	0	492
6	0	0	0	0	480
7	0	0	0	0	485
8	0	0	0	0	500
9	0	0	0	0	496
10	0	0	0	0	507
11	0	0	0	0	501
12	0	0	0	0	509
13	0	0	0	0	506
14	0	0	0	0	507
15	0	0	0	0	509
0	0	0	0	0	509
1	0	0	0	0	517
2	0	0	0	0	526
3	0	0	0	0	539
4	0	0	0	0	548
5	0	0	0	0	559
6	0	0	0	0	543
7	0	0	0	0	540
8	0	0	0	0	539
9	0	0	0	0	527
10	0	0	0	0	507
11	0	0	0	0	499
12	0	0	0	0	505
13	0	0	0	0	501
14	0	0	0	0	502
15	0	0	0	0	507
0	0	0	0	0	515
1	0	0	0	0	478
2	0	0	0	0	480
3	0	0	0	0	718
4	0	0	0	0	939
5	0	0	0	0	502
6	0	0	0	0	276
7	0	0	0	0	381
8	0	0	0	0	481
9	0	0	0	0	499
10	0	0	0	0	502
11	0	0	0	0	503
12	0	0	0	0	515
13	0	0	0	0	511
14	0	0	0	0	511
15	0	0	0	0	520
0	0	0	0	0	518
1	0	0	0	0	521
2	0	0	0	0	520
3	0	0	0	0	528
4	0	0	0	0	526
5	0	0	0	0	532
6	0	0	0	0	534
7	0	0	0	0	534
8	0	0	0	0	552
9	0	0	0	0	555
10	0	0	0	0	564
11	0	0	0	0	575
12	0	0	0	0	574
13	0	0	0	0	566
14	0	0	0	0	536
15	0	0	0	0	492
0	0	0	0	0	460
1	0	0	0	0	431
2	0	0	0	0	423
3	0	0	0	0	416
4	0	0	0	0	428
5	0	0	0	0	430
6	0	0	0	0	438
7	0	0	0	0	445
8	0	0	0	0	445
9	0	0	0	0	456
10	0	0	0	0	459
11	0	0	0	0	459
12	0	0	0	0	469
13	0	0	0	0	481
14	0	0	0	0	473
15	0	0	0	0	473
0	0	0	0	0	475
1	0	0	0	0	473
2	0	0	0	0	483
3	0	0	0	0	478
4	0	0	0	0	497
5	0	0	0	0	494
6	0	0	0	0	494
7	0	0	0	0	492
8	0	0	0	0	493
9	0	0	0	0	496
10	0	0	0	0	499
11	0	0	0	0	512
12	0	0	0	0	512
13	0	0	0	0	518
14	0	0	0	0	527
15	0	0	0	0	540
0	0	0	0	0	534
1	0	0	0	0	532
2	0	0	0	0	514
3	0	0	0	0	504
4	0	0	0	0	486
5	0	0	0	0	485
6	0	0	0	0	487
7	0	0	0	0	489
8	0	0	0	0	489
9	0	0	0	0	491
10	0	0	0	0	487
11	0	0	0	0	435
12	0	0	0	0	509
13	0	0	0	0	803
14	0	0	0	0	894
15	0	0	0	0	353
0	0	0	0	0	282
1	0	0	0	0	395
2	0	0	0	0	469
3	0	0	0	0	479
4	0	0	0	0	496
5	0	0	0	0	500
6	0	0	0	0	501
7	0	0	0	0	508
8	0	0	0	0	509
9	0	0	0	0	512
10	0	0	0	0	515
11	0	0	0	0	517
12	0	0	0	0	517
13	0	0	0	0	523
14	0	0	0	0	525
15	0	0	0	0	526
0	0	0	0	0	537
1	0	0	0	0	547
2	0	0	0	0	553
3	0	0	0	0	563
4	0	0	0	0	569
5	0	0	0	0	583
6	0	0	0	0	585
7	0	0	0	0	572
8	0	0	0	0	537
9	0	0	0	0	494
10	0	0	0	0	462
11	0	0	0	0	441
12	0	0	0	0	431
13	0	0	0	0	434
14	0	0	0	0	432
15	0	0	0	0	438
0	0	0	0	0	447
1	0	0	0	0	454
2	0	0	0	0	462
3	0	0	0	0	470
4	0	0	0	0	472
5	0	0	0	0	479
6	0	0	0	0	482
7	0	0	0	0	487
8	0	0	0	0	481
9	0	0	0	0	480
10	0	0	0	0	489
11	0	0	0	0	494
12	0	0	0	0	497
13	0	0	0	0	498
14	0	0	0	0	506
15	0	0	0	0	506
0	0	0	0	0	502
1	0	0	0	0	512
2	0	0	0	0	508
3	0	0	0	0	514
4	0	0	0	0	524
5	0	0	0	0	521
6	0	0	0	0	531
7	0	0	0	0	536
8	0	0	0	0	547
9	0	0	0	0	538
10	0	0	0	0	543
11	0	0	0	0	539
12	0	0	0	0	512
13	0	0	0	0	499
14	0	0	0	0	496
15	0	0	0	0	494
0	0	0	0	0	499
1	0	0	0	0	501
2	0	0	0	0	503
3	0	0	0	0	505
4	0	0	0	0	453
5	0	0	0	0	483
6	0	0	0	0	720
7	0	0	0	0	938
8	0	0	0	0	430
9	0	0	0	0	253
10	0	0	0	0	373
11	0	0	0	0	468
12	0	0	0	0	499
13	0	0	0	0	509
14	0	0	0	0	519
15	0	0	0	0	527
0	0	0	0	0	518
1	0	0	0	0	527
2	0	0	0	0	529
3	0	0	0	0	539
4	0	0	0	0	538
5	0	0	0	0	535
6	0	0	0	0	539
7	0	0	0	0	540
8	0	0	0	0	553
9	0	0	0	0	557
10	0	0	0	0	564
11	0	0	0	0	564
12	0	0	0	0	583
13	0	0	0	0	595
14	0	0	0	0	596
15	0	0	0	0	598
0	0	0	0	0	591
1	0	0	0	0	562
2	0	0	0	0	516
3	0	0	0	0	479
4	0	0	0	0	454
5	0	0	0	0	441
6	0	0	0	0	435
7	0	0	0	0	439
8	0	0	0	0	451
9	0	0	0	0	457
10	0	0	0	0	467
11	0	0	0	0	474
12	0	0	0	0	472
13	0	0	0	0	476
14	0	0	0	0	484
15	0	0	0	0	491
0	0	0	0	0	491
1	0	0	0	0	496
2	0	0	0	0	494
3	0	0	0	0	497
4	0	0	0	0	501
5	0	0	0	0	506
6	0	0	0	0	510
7	0	0	0	0	511
8	0	0	0	0	513
9	0	0	0	0	520
10	0	0	0	0	512
11	0	0	0	0	510
12	0	0	0	0	513
13	0	0	0	0	512
14	0	0	0	0	524
15	0	0	0	0	533
0	0	0	0	0	533
1	0	0	0	0	537
2	0	0	0	0	543
3	0	0	0	0	551
4	0	0	0	0	548
5	0	0	0	0	544
6	0	0	0	0	535
7	0	0	0	0	519
8	0	0	0	0	507
9	0	0	0	0	506
10	0	0	0	0	497
11	0	0	0	0	502
12	0	0	0	0	500
13	0	0	0	0	498
14	0	0	0	0	505
15	0	0	0	0	451
0	0	0	0	0	534
1	0	0	0	0	824
2	0	0	0	0	876
3	0	0	0	0	338
4	0	0	0	0	301
5	0	0	0	0	419
6	0	0	0	0	481
7	0	0	0	0	500
8	0	0	0	0	506
9	0	0	0	0	513
10	0	0	0	0	511
11	0	0	0	0	515
12	0	0	0	0	517
13	0	0	0	0	533
14	0	0	0	0	519
15	0	0	0	0	526
0	0	0	0	0	528
1	0	0	0	0	527
2	0	0	0	0	539
3	0	0	0	0	537
4	0	0	0	0	544
5	0	0	0	0	558
6	0	0	0	0	567
7	0	0	0	0	573
8	0	0	0	0	579
9	0	0	0	0	588
10	0	0	0	0	584
11	0	0	0	0	579
12	0	0	0	0	545
13	0	0	0	0	510
14	0	0	0	0	475
15	0	0	0	0	451
0	0	0	0	0	440
1	0	0	0	0	437
2	0	0	0	0	447
3	0	0	0	0	459
4	0	0	0	0	450
5	0	0	0	0	467
6	0	0	0	0	475
7	0	0	0	0	470
8	0	0	0	0	481
9	0	0	0	0	485
10	0	0	0	0	485
11	0	0	0	0	496
12	0	0	0	0	496
13	0	0	0	0	500
14	0	0	0	0	499
15	0	0	0	0	503
0	0	0	0	0	505
1	0	0	0	0	507
2	0	0	0	0	507
3	0	0	0	0	515
4	0	0	0	0	511
5	0	0	0	0	508
6	0	0	0	0	514
7	0	0	0	0	510
8	0	0	0	0	514
9	0	0	0	0	522
10	0	0	0	0	524
11	0	0	0	0	528
12	0	0	0	0	533
13	0	0	0	0	540
14	0	0	0	0	550
15	0	0	0	0	544
0	0	0	0	0	542
1	0	0	0	0	534
2	0	0	0	0	516
3	0	0	0	0	499
4	0	0	0	0	496
5	0	0	0	0	494
6	0	0	0	0	504
7	0	0	0	0	500
8	0	0	0	0	497
9	0	0	0	0	501
10	0	0	0	0	448
11	0	0	0	0	480
12	0	0	0	0	740
13	0	0	0	0	932
14	0	0	0	0	446
15	0	0	0	0	273
0	0	0	0	0	385
1	0	0	0	0	472
2	0	0	0	0	487
3	0	0	0	0	508
4	0	0	0	0	508
5	0	0	0	0	509
6	0	0	0	0	516
7	0	0	0	0	524
8	0	0	0	0	526
9	0	0	0	0	528
10	0	0	0	0	523
11	0	0	0	0	531
12	0	0	0	0	530
13	0	0	0	0	539
14	0	0	0	0	543
15	0	0	0	0	539
0	0	0	0	0	555
1	0	0	0	0	563
2	0	0	0	0	568
3	0	0	0	0	577
4	0	0	0	0	583
5	0	0	0	0	590
6	0	0	0	0	588
7	0	0	0	0	558
8	0	0	0	0	523
9	0	0	0	0	487
10	0	0	0	0	462
11	0	0	0	0	442
12	0	0	0	0	440
13	0	0	0	0	442
14	0	0	0	0	444
15	0	0	0	0	459
0	0	0	0	0	467
1	0	0	0	0	466
2	0	0	0	0	478
3	0	0	0	0	484
4	0	0	0	0	475
5	0	0	0	0	490
6	0	0	0	0	495
7	0	0	0	0	498
8	0	0	0	0	496
9	0	0	0	0	496
10	0	0	0	0	499
11	0	0	0	0	510
12	0	0	0	0	506
13	0	0	0	0	512
14	0	0	0	0	506
15	0	0	0	0	515
0	0	0	0	0	509
1	0	0	0	0	513
2	0	0	0	0	513
3	0	0	0	0	515
4	0	0	0	0	515
5	0	0	0	0	516
6	0	0	0	0	516
7	0	0	0	0	517
8	0	0	0	0	523
9	0	0	0	0	527
10	0	0	0	0	529
11	0	0	0	0	543
12	0	0	0	0	552
13	0	0	0	0	552
14	0	0	0	0	543
15	0	0	0	0	540
0	0	0	0	0	512
1	0	0	0	0	504
2	0	0	0	0	491
3	0	0	0	0	496
4	0	0	0	0	496
5	0	0	0	0	497
6	0	0	0	0	496
7	0	0	0	0	509
8	0	0	0	0	458
9	0	0	0	0	472
10	0	0	0	0	711
11	0	0	0	0	937
12	0	0	0	0	479
13	0	0	0	0	261
14	0	0	0	0	361
15	0	0	0	0	472
0	0	0	0	0	488
1	0	0	0	0	502
2	0	0	0	0	510
3	0	0	0	0	512
4	0	0	0	0	513
5	0	0	0	0	512
6	0	0	0	0	520
7	0	0	0	0	520
8	0	0	0	0	524
9	0	0	0	0	529
10	0	0	0	0	525
11	0	0	0	0	533
12	0	0	0	0	531
13	0	0	0	0	541
14	0	0	0	0	546
15	0	0	0	0	554
0	0	0	0	0	561
1	0	0	0	0	578
2	0	0	0	0	581
3	0	0	0	0	585
4	0	0	0	0	581
5	0	0	0	0	564
6	0	0	0	0	516
7	0	0	0	0	479
8	0	0	0	0	458
9	0	0	0	0	444
10	0	0	0	0	436
11	0	0	0	0	438
12	0	0	0	0	439
13	0	0	0	0	453
14	0	0	0	0	456
15	0	0	0	0	461
0	0	0	0	0	457
1	0	0	0	0	478
2	0	0	0	0	480
3	0	0	0	0	479
4	0	0	0	0	481
5	0	0	0	0	491
6	0	0	0	0	491
7	0	0	0	0	493
8	0	0	0	0	494
9	0	0	0	0	503
10	0	0	0	0	501
11	0	0	0	0	498
12	0	0	0	0	504
13	0	0	0	0	505
14	0	0	0	0	509
15	0	0	0	0	511
0	0	0	0	0	508
1	0	0	0	0	509
2	0	0	0	0	517
3	0	0	0	0	519
4	0	0	0	0	528
5	0	0	0	0	540
6	0	0	0	0	547
7	0	0	0	0	542
8	0	0	0	0	545
9	0	0	0	0	522
10	0	0	0	0	508
11	0	0	0	0	499
12	0	0	0	0	494
13	0	0	0	0	492
14	0	0	0	0	492
15	0	0	0	0	502
0	0	0	0	0	497
1	0	0	0	0	502
2	0	0	0	0	446
3	0	0	0	0	548
4	0	0	0	0	850
5	0	0	0	0	791
6	0	0	0	0	283
7	0	0	0	0	294
8	0	0	0	0	425
9	0	0	0	0	497
10	0	0	0	0	504
11	0	0	0	0	511
12	0	0	0	0	512
13	0	0	0	0	519
14	0	0	0	0	523
15	0	0	0	0	520
0	0	0	0	0	527
1	0	0	0	0	536
2	0	0	0	0	525
3	0	0	0	0	534
4	0	0	0	0	529
5	0	0	0	0	544
6	0	0	0	0	541
7	0	0	0	0	551
8	0	0	0	0	559
9	0	0	0	0	566
10	0	0	0	0	578
11	0	0	0	0	593
12	0	0	0	0	592
13	0	0	0	0	586
14	0	0	0	0	573
15	0	0	0	0	530
0	0	0	0	0	491
1	0	0	0	0	463
2	0	0	0	0	439
3	0	0	0	0	431
4	0	0	0	0	434
5	0	0	0	0	439
6	0	0	0	0	444
7	0	0	0	0	457
8	0	0	0	0	454
9	0	0	0	0	468
10	0	0	0	0	469
11	0	0	0	0	475
12	0	0	0	0	479
13	0	0	0	0	493
14	0	0	0	0	490
15	0	0	0	0	492
0	0	0	0	0	492
1	0	0	0	0	502
2	0	0	0	0	503
3	0	0	0	0	505
4	0	0	0	0	504
5	0	0	0	0	510
6	0	0	0	0	509
7	0	0	0	0	512
8	0	0	0	0	504
9	0	0	0	0	521
10	0	0	0	0	519
11	0	0	0	0	526
12	0	0	0	0	524
13	0	0	0	0	530
14	0	0	0	0	546
15	0	0	0	0	541
0	0	0	0	0	545
1	0	0	0	0	532
2	0	0	0	0	515
3	0	0	0	0	512
4	0	0	0	0	495
5	0	0	0	0	498
6	0	0	0	0	496
7	0	0	0	0	500
8	0	0	0	0	500
9	0	0	0	0	505
10	0	0	0	0	446
11	0	0	0	0	489
12	0	0	0	0	748
13	0	0	0	0	911
14	0	0	0	0	406
15	0	0	0	0	287
0	0	0	0	0	397
1	0	0	0	0	480
2	0	0	0	0	495
3	0	0	0	0	501
4	0	0	0	0	510
5	0	0	0	0	510
6	0	0	0	0	516
7	0	0	0	0	518
8	0	0	0	0	525
9	0	0	0	0	531
10	0	0	0	0	529
11	0	0	0	0	527
12	0	0	0	0	523
13	0	0	0	0	543
14	0	0	0	0	540
15	0	0	0	0	547
0	0	0	0	0	551
1	0	0	0	0	564
2	0	0	0	0	569
3	0	0	0	0	583
4	0	0	0	0	591
5	0	0	0	0	591
6	0	0	0	0	579
7	0	0	0	0	550
8	0	0	0	0	507
9	0	0	0	0	478
10	0	0	0	0	452
11	0	0	0	0	440
12	0	0	0	0	442
13	0	0	0	0	451
14	0	0	0	0	456
15	0	0	0	0	463
0	0	0	0	0	469
1	0	0	0	0	470
2	0	0	0	0	478
3	0	0	0	0	472
4	0	0	0	0	478
5	0	0	0	0	497
6	0	0	0	0	487
7	0	0	0	0	495
8	0	0	0	0	497
9	0	0	0	0	498
10	0	0	0	0	499
11	0	0	0	0	504
12	0	0	0	0	504
13	0	0	0	0	512
14	0	0	0	0	505
15	0	0	0	0	513
0	0	0	0	0	502
1	0	0	0	0	513
2	0	0	0	0	510
3	0	0	0	0	524
4	0	0	0	0	524
5	0	0	0	0	534
6	0	0	0	0	541
7	0	0	0	0	553
8	0	0	0	0	539
9	0	0	0	0	544
10	0	0	0	0	529
11	0	0	0	0	512
12	0	0	0	0	498
13	0	0	0	0	502
14	0	0	0	0	495
15	0	0	0	0	492
0	0	0	0	0	492
1	0	0	0	0	499
2	0	0	0	0	493
3	0	0	0	0	449
4	0	0	0	0	547
5	0	0	0	0	852
6	0	0	0	0	830
7	0	0	0	0	305
8	0	0	0	0	308
9	0	0	0	0	433
10	0	0	0	0	484
11	0	0	0	0	495
12	0	0	0	0	507
13	0	0	0	0	508
14	0	0	0	0	508
15	0	0	0	0	521
0	0	0	0	0	519
1	0	0	0	0	521
2	0	0	0	0	524
3	0	0	0	0	528
4	0	0	0	0	525
5	0	0	0	0	531
6	0	0	0	0	540
7	0	0	0	0	541
8	0	0	0	0	548
9	0	0	0	0	555
10	0	0	0	0	564
11	0	0	0	0	580
12	0	0	0	0	579
13	0	0	0	0	590
14	0	0	0	0	589
15	0	0	0	0	575
0	0	0	0	0	534
1	0	0	0	0	498
2	0	0	0	0	468
3	0	0	0	0	447
4	0	0	0	0	428
5	0	0	0	0	438
6	0	0	0	0	444
7	0	0	0	0	457
8	0	0	0	0	455
9	0	0	0	0	468
10	0	0	0	0	469
11	0	0	0	0	473
12	0	0	0	0	483
13	0	0	0	0	482
14	0	0	0	0	482
15	0	0	0	0	497
0	0	0	0	0	493
1	0	0	0	0	497
2	0	0	0	0	494
3	0	0	0	0	505
4	0	0	0	0	501
5	0	0	0	0	511
6	0	0	0	0	507
7	0	0	0	0	517
8	0	0	0	0	512
9	0	0	0	0	518
10	0	0	0	0	508
11	0	0	0	0	516
12	0	0	0	0	523
13	0	0	0	0	528
14	0	0	0	0	523
15	0	0	0	0	553
0	0	0	0	0	553
1	0	0	0	0	550
2	0	0	0	0	536
3	0	0	0	0	526
4	0	0	0	0	508
5	0	0	0	0	499
6	0	0	0	0	490
7	0	0	0	0	500
8	0	0	0	0	502
9	0	0	0	0	495
10	0	0	0	0	503
11	0	0	0	0	487
12	0	0	0	0	454
13	0	0	0	0	602
14	0	0	0	0	892
15	0	0	0	0	721
0	0	0	0	0	267
1	0	0	0	0	329
2	0	0	0	0	440
3	0	0	0	0	490
4	0	0	0	0	490
5	0	0	0	0	511
6	0	0	0	0	506
7	0	0	0	0	515
8	0	0	0	0	515
9	0	0	0	0	526
10	0	0	0	0	522
11	0	0	0	0	524
12	0	0	0	0	528
13	0	0	0	0	534
14	0	0	0	0	527
15	0	0	0	0	531
0	0	0	0	0	547
1	0	0	0	0	551
2	0	0	0	0	553
3	0	0	0	0	568
4	0	0	0	0	573
5	0	0	0	0	584
6	0	0	0	0	590
7	0	0	0	0	584
8	0	0	0	0	571
9	0	0	0	0	533
10	0	0	0	0	488
11	0	0	0	0	460
12	0	0	0	0	442
13	0	0	0	0	431
14	0	0	0	0	436
15	0	0	0	0	444
0	0	0	0	0	447
1	0	0	0	0	467
2	0	0	0	0	462
3	0	0	0	0	473
4	0	0	0	0	476
5	0	0	0	0	483
6	0	0	0	0	481
7	0	0	0	0	491
8	0	0	0	0	493
9	0	0	0	0	490
10	0	0	0	0	491
11	0	0	0	0	495
12	0	0	0	0	504
13	0	0	0	0	504
14	0	0	0	0	501
15	0	0	0	0	508
0	0	0	0	0	514
1	0	0	0	0	512
2	0	0	0	0	502
3	0	0	0	0	510
4	0	0	0	0	515
5	0	0	0	0	519
6	0	0	0	0	514
7	0	0	0	0	518
8	0	0	0	0	519
9	0	0	0	0	519
10	0	0	0	0	516
11	0	0	0	0	512
12	0	0	0	0	521
13	0	0	0	0	523
14	0	0	0	0	531
15	0	0	0	0	534
0	0	0	0	0	529
1	0	0	0	0	544
2	0	0	0	0	550
3	0	0	0	0	538
4	0	0	0	0	540
5	0	0	0	0	531
6	0	0	0	0	515
7	0	0	0	0	495
8	0	0	0	0	487
9	0	0	0	0	491
10	0	0	0	0	490
11	0	0	0	0	503
12	0	0	0	0	498
13	0	0	0	0	496
14	0	0	0	0	450
15	0	0	0	0	539
0	0	0	0	0	832
1	0	0	0	0	858
2	0	0	0	0	307
3	0	0	0	0	299
4	0	0	0	0	416
5	0	0	0	0	480
6	0	0	0	0	489
7	0	0	0	0	499
8	0	0	0	0	506
9	0	0	0	0	510
10	0	0	0	0	515
11	0	0	0	0	516
12	0	0	0	0	523
13	0	0	0	0	523
14	0	0	0	0	523
15	0	0	0	0	530
0	0	0	0	0	530
1	0	0	0	0	532
2	0	0	0	0	537
3	0	0	0	0	553
4	0	0	0	0	554
5	0	0	0	0	561
6	0	0	0	0	564
7	0	0	0	0	580
8	0	0	0	0	587
9	0	0	0	0	594
10	0	0	0	0	580
11	0	0	0	0	557
12	0	0	0	0	508
13	0	0	0	0	472
14	0	0	0	0	449
15	0	0	0	0	441
0	0	0	0	0	423
1	0	0	0	0	440
2	0	0	0	0	435
3	0	0	0	0	456
4	0	0	0	0	455
5	0	0	0	0	473
6	0	0	0	0	467
7	0	0	0	0	469
8	0	0	0	0	487
9	0	0	0	0	487
10	0	0	0	0	483
11	0	0	0	0	483
12	0	0	0	0	483
13	0	0	0	0	503
14	0	0	0	0	508
15	0	0	0	0	519
0	0	0	0	0	515
1	0	0	0	0	492
2	0	0	0	0	483
3	0	0	0	0	498
4	0	0	0	0	514
5	0	0	0	0	524
6	0	0	0	0	530
7	0	0	0	0	523
8	0	0	0	0	504
9	0	0	0	0	501
10	0	0	0	0	504
11	0	0	0	0	513
12	0	0	0	0	526
13	0	0	0	0	534
14	0	0	0	0	529
15	0	0	0	0	541
0	0	0	0	0	539
1	0	0	0	0	542
2	0	0	0	0	540
3	0	0	0	0	529
4	0	0	0	0	508
5	0	0	0	0	498
6	0	0	0	0	497
7	0	0	0	0	499
8	0	0	0	0	503
9	0	0	0	0	499
10	0	0	0	0	499
11	0	0	0	0	497
12	0	0	0	0	445
13	0	0	0	0	561
14	0	0	0	0	853
15	0	0	0	0	795
0	0	0	0	0	296
1	0	0	0	0	295
2	0	0	0	0	412
3	0	0	0	0	488
4	0	0	0	0	502
5	0	0	0	0	510
6	0	0	0	0	515
7	0	0	0	0	520
8	0	0	0	0	523
9	0	0	0	0	521
10	0	0	0	0	523
11	0	0	0	0	524
12	0	0	0	0	535
13	0	0	0	0	536
14	0	0	0	0	532
15	0	0	0	0	537
0	0	0	0	0	540
1	0	0	0	0	541
2	0	0	0	0	552
3	0	0	0	0	565
4	0	0	0	0	579
5	0	0	0	0	588
6	0	0	0	0	593
7	0	0	0	0	588
8	0	0	0	0	570
9	0	0	0	0	541
10	0	0	0	0	501
11	0	0	0	0	470
12	0	0	0	0	446
13	0	0	0	0	432
14	0	0	0	0	432
15	0	0	0	0	443
0	0	0	0	0	443
1	0	0	0	0	458
2	0	0	0	0	463
3	0	0	0	0	465
4	0	0	0	0	473
5	0	0	0	0	477
6	0	0	0	0	480
7	0	0	0	0	488
8	0	0	0	0	486
9	0	0	0	0	490
10	0	0	0	0	495
11	0	0	0	0	498
12	0	0	0	0	499
13	0	0	0	0	500
14	0	0	0	0	505
15	0	0	0	0	506
0	0	0	0	0	503
1	0	0	0	0	518
2	0	0	0	0	511
3	0	0	0	0	520
4	0	0	0	0	515
5	0	0	0	0	510
6	0	0	0	0	515
7	0	0	0	0	521
8	0	0	0	0	516
9	0	0	0	0	514
10	0	0	0	0	515
11	0	0	0	0	528
12	0	0	0	0	520
13	0	0	0	0	530
14	0	0	0	0	537
15	0	0	0	0	549
0	0	0	0	0	536
1	0	0	0	0	546
2	0	0	0	0	534
3	0	0	0	0	515
4	0	0	0	0	504
5	0	0	0	0	498
6	0	0	0	0	497
7	0	0	0	0	501
8	0	0	0	0	494
9	0	0	0	0	503
10	0	0	0	0	499
11	0	0	0	0	443
12	0	0	0	0	532
13	0	0	0	0	821
14	0	0	0	0	878
15	0	0	0	0	323
0	0	0	0	0	296
1	0	0	0	0	416
2	0	0	0	0	476
3	0	0	0	0	496
4	0	0	0	0	494
5	0	0	0	0	508
6	0	0	0	0	508
7	0	0	0	0	517
8	0	0	0	0	515
9	0	0	0	0	516
10	0	0	0	0	523
11	0	0	0	0	531
12	0	0	0	0	529
13	0	0	0	0	525
14	0	0	0	0	536
15	0	0	0	0	539
0	0	0	0	0	540
1	0	0	0	0	554
2	0	0	0	0	559
3	0	0	0	0	572
4	0	0	0	0	576
5	0	0	0	0	583
6	0	0	0	0	582
7	0	0	0	0	579
8	0	0	0	0	553
9	0	0	0	0	514
10	0	0	0	0	470
11	0	0	0	0	436
12	0	0	0	0	435
13	0	0	0	0	441
14	0	0	0	0	441
15	0	0	0	0	447
0	0	0	0	0	457
1	0	0	0	0	470
2	0	0	0	0	468
3	0	0	0	0	471
4	0	0	0	0	479
5	0	0	0	0	487
6	0	0	0	0	485
7	0	0	0	0	482
8	0	0	0	0	487
9	0	0	0	0	497
10	0	0	0	0	498
11	0	0	0	0	498
12	0	0	0	0	502
13	0	0	0	0	509
14	0	0	0	0	506
15	0	0	0	0	509
0	0	0	0	0	506
1	0	0	0	0	509
2	0	0	0	0	511
3	0	0	0	0	512
4	0	0	0	0	515
5	0	0	0	0	513
6	0	0	0	0	513
7	0	0	0	0	509
8	0	0	0	0	516
9	0	0	0	0	515
10	0	0	0	0	508
11	0	0	0	0	519
12	0	0	0	0	522
13	0	0	0	0	519
14	0	0	0	0	519
15	0	0	0	0	519
0	0	0	0	0	521
1	0	0	0	0	536
2	0	0	0	0	551
3	0	0	0	0	551
4	0	0	0	0	542
5	0	0	0	0	542
6	0	0	0	0	519
7	0	0	0	0	502
8	0	0	0	0	494
9	0	0	0	0	496
10	0	0	0	0	498
11	0	0	0	0	505
12	0	0	0	0	496
13	0	0	0	0	496
14	0	0	0	0	459
15	0	0	0	0	471
0	0	0	0	0	697
1	0	0	0	0	934
2	0	0	0	0	507
3	0	0	0	0	258
4	0	0	0	0	365
5	0	0	0	0	463
6	0	0	0	0	486
7	0	0	0	0	502
8	0	0	0	0	506
9	0	0	0	0	507
10	0	0	0	0	508
11	0	0	0	0	518
12	0	0	0	0	520
13	0	0	0	0	524
14	0	0	0	0	521
15	0	0	0	0	527
0	0	0	0	0	529
1	0	0	0	0	531
2	0	0	0	0	532
3	0	0	0	0	543
4	0	0	0	0	542
5	0	0	0	0	557
6	0	0	0	0	563
7	0	0	0	0	572
8	0	0	0	0	585
9	0	0	0	0	590
10	0	0	0	0	582
11	0	0	0	0	568
12	0	0	0	0	535
13	0	0	0	0	488
14	0	0	0	0	451
15	0	0	0	0	441
0	0	0	0	0	437
1	0	0	0	0	433
2	0	0	0	0	441
3	0	0	0	0	444
4	0	0	0	0	460
5	0	0	0	0	468
6	0	0	0	0	469
7	0	0	0	0	477
8	0	0	0	0	482
9	0	0	0	0	480
10	0	0	0	0	487
11	0	0	0	0	487
12	0	0	0	0	489
13	0	0	0	0	499
14	0	0	0	0	503
15	0	0	0	0	500
0	0	0	0	0	503
1	0	0	0	0	499
2	0	0	0	0	508
3	0	0	0	0	509
4	0	0	0	0	506
5	0	0	0	0	511
6	0	0	0	0	515
7	0	0	0	0	515
8	0	0	0	0	518
9	0	0	0	0	512
10	0	0	0	0	515
11	0	0	0	0	516
12	0	0	0	0	517
13	0	0	0	0	521
14	0	0	0	0	516
15	0	0	0	0	514
0	0	0	0	0	523
1	0	0	0	0	513
2	0	0	0	0	527
3	0	0	0	0	526
4	0	0	0	0	530
5	0	0	0	0	540
6	0	0	0	0	550
7	0	0	0	0	539
8	0	0	0	0	540
9	0	0	0	0	531
10	0	0	0	0	508
11	0	0	0	0	492
12	0	0	0	0	491
13	0	0	0	0	498
14	0	0	0	0	489
15	0	0	0	0	499
0	0	0	0	0	505
1	0	0	0	0	476
2	0	0	0	0	454
3	0	0	0	0	620
4	0	0	0	0	918
5	0	0	0	0	672
6	0	0	0	0	246
7	0	0	0	0	326
8	0	0	0	0	448
9	0	0	0	0	475
10	0	0	0	0	502
11	0	0	0	0	502
12	0	0	0	0	505
13	0	0	0	0	513
14	0	0	0	0	522
15	0	0	0	0	520
0	0	0	0	0	512
1	0	0	0	0	524
2	0	0	0	0	524
3	0	0	0	0	525
4	0	0	0	0	528
5	0	0	0	0	542
6	0	0	0	0	545
7	0	0	0	0	546
8	0	0	0	0	550
9	0	0	0	0	560
10	0	0	0	0	577
11	0	0	0	0	592
12	0	0	0	0	584
13	0	0	0	0	588
14	0	0	0	0	579
15	0	0	0	0	548
0	0	0	0	0	498
1	0	0	0	0	460
2	0	0	0	0	444
3	0	0	0	0	441
4	0	0	0	0	440
5	0	0	0	0	435
6	0	0	0	0	449
7	0	0	0	0	458
8	0	0	0	0	469
9	0	0	0	0	468
10	0	0	0	0	472
11	0	0	0	0	478
12	0	0	0	0	488
13	0	0	0	0	484
14	0	0	0	0	493
15	0	0	0	0	491
0	0	0	0	0	498
1	0	0	0	0	493
2	0	0	0	0	497
3	0	0	0	0	501
4	0	0	0	0	511
5	0	0	0	0	504
6	0	0	0	0	510
7	0	0	0	0	511
8	0	0	0	0	507
9	0	0	0	0	522
10	0	0	0	0	518
11	0	0	0	0	520
12	0	0	0	0	512
13	0	0	0	0	506
14	0	0	0	0	515
15	0	0	0	0	517
0	0	0	0	0	517
1	0	0	0	0	516
2	0	0	0	0	517
3	0	0	0	0	509
4	0	0	0	0	532
5	0	0	0	0	548
6	0	0	0	0	547
7	0	0	0	0	546
8	0	0	0	0	547
9	0	0	0	0	542
10	0	0	0	0	546
11	0	0	0	0	520
12	0	0	0	0	500
13	0	0	0	0	504
14	0	0	0	0	500
15	0	0	0	0	489
0	0	0	0	0	495
1	0	0	0	0	510
2	0	0	0	0	461
3	0	0	0	0	467
4	0	0	0	0	612
5	0	0	0	0	893
6	0	0	0	0	676
7	0	0	0	0	281
8	0	0	0	0	305
9	0	0	0	0	456
10	0	0	0	0	497
11	0	0	0	0	482
12	0	0	0	0	530
13	0	0	0	0	523
14	0	0	0	0	499
15	0	0	0	0	543
0	0	0	0	0	507
1	0	0	0	0	533
2	0	0	0	0	540
3	0	0	0	0	525
4	0	0	0	0	531
5	0	0	0	0	575
6	0	0	0	0	516
7	0	0	0	0	529
8	0	0	0	0	551
9	0	0	0	0	554
10	0	0	0	0	608
11	0	0	0	0	563
12	0	0	0	0	560
13	0	0	0	0	590
14	0	0	0	0	588
15	0	0	0	0	588
0	0	0	0	0	520
1	0	0	0	0	495
2	0	0	0	0	442
3	0	0	0	0	458
4	0	0	0	0	432
5	0	0	0	0	429
6	0	0	0	0	455
7	0	0	0	0	432
8	0	0	0	0	463
9	0	0	0	0	455
10	0	0	0	0	464
11	0	0	0	0	471
12	0	0	0	0	481
13	0	0	0	0	478
14	0	0	0	0	475
15	0	0	0	0	500
0	0	0	0	0	475
1	0	0	0	0	471
2	0	0	0	0	508
3	0	0	0	0	494
4	0	0	0	0	512
5	0	0	0	0	507
6	0	0	0	0	483
7	0	0	0	0	524
8	0	0	0	0	507
9	0	0	0	0	504
10	0	0	0	0	521
11	0	0	0	0	502
12	0	0	0	0	506
13	0	0	0	0	519
14	0	0	0	0	524
15	0	0	0	0	507
0	0	0	0	0	522
1	0	0	0	0	503
2	0	0	0	0	553
3	0	0	0	0	513
4	0	0	0	0	510
5	0	0	0	0	540
6	0	0	0	0	561
7	0	0	0	0	539
8	0	0	0	0	545
9	0	0	0	0	511
10	0	0	0	0	506
11	0	0	0	0	497
12	0	0	0	0	498
13	0	0	0	0	495
14	0	0	0	0	502
15	0	0	0	0	503
0	0	0	0	0	487
1	0	0	0	0	507
2	0	0	0	0	454
3	0	0	0	0	580
4	0	0	0	0	871
5	0	0	0	0	764
6	0	0	0	0	267
7	0	0	0	0	335
8	0	0	0	0	442
9	0	0	0	0	488
10	0	0	0	0	496
11	0	0	0	0	489
12	0	0	0	0	521
13	0	0	0	0	518
14	0	0	0	0	519
15	0	0	0	0	522
0	0	0	0	0	511
1	0	0	0	0	528
2	0	0	0	0	538
3	0	0	0	0	526
4	0	0	0	0	534
5	0	0	0	0	526
6	0	0	0	0	559
7	0	0	0	0	545
8	0	0	0	0	545
9	0	0	0	0	566
10	0	0	0	0	572
11	0	0	0	0	575
12	0	0	0	0	585
13	0	0	0	0	590
14	0	0	0	0	582
15	0	0	0	0	538
0	0	0	0	0	504
1	0	0	0	0	451
2	0	0	0	0	451
3	0	0	0	0	430
4	0	0	0	0	421
5	0	0	0	0	440
6	0	0	0	0	455
7	0	0	0	0	458
8	0	0	0	0	465
9	0	0	0	0	471
10	0	0	0	0	493
11	0	0	0	0	481
12	0	0	0	0	494
13	0	0	0	0	489
14	0	0	0	0	493
15	0	0	0	0	482
0	0	0	0	0	513
1	0	0	0	0	508
2	0	0	0	0	504
3	0	0	0	0	497
4	0	0	0	0	511
5	0	0	0	0	511
6	0	0	0	0	506
7	0	0	0	0	518
8	0	0	0	0	487
9	0	0	0	0	515
10	0	0	0	0	521
11	0	0	0	0	524
12	0	0	0	0	483
13	0	0	0	0	545
14	0	0	0	0	525
15	0	0	0	0	513
0	0	0	0	0	515
1	0	0	0	0	513
2	0	0	0	0	518
3	0	0	0	0	509
4	0	0	0	0	519
5	0	0	0	0	526
6	0	0	0	0	531
7	0	0	0	0	537
8	0	0	0	0	551
9	0	0	0	0	532
10	0	0	0	0	567
11	0	0	0	0	551
12	0	0	0	0	473
13	0	0	0	0	514
14	0	0	0	0	502
15	0	0	0	0	503
0	0	0	0	0	501
1	0	0	0	0	500
2	0	0	0	0	505
3	0	0	0	0	509
4	0	0	0	0	443
5	0	0	0	0	538
6	0	0	0	0	817
7	0	0	0	0	908
8	0	0	0	0	343
9	0	0	0	0	282
10	0	0	0	0	427
11	0	0	0	0	492
12	0	0	0	0	498
13	0	0	0	0	500
14	0	0	0	0	519
15	0	0	0	0	526
0	0	0	0	0	517
1	0	0	0	0	513
2	0	0	0	0	543
3	0	0	0	0	536
4	0	0	0	0	529
5	0	0	0	0	541
6	0	0	0	0	547
7	0	0	0	0	519
8	0	0	0	0	566
9	0	0	0	0	559
10	0	0	0	0	553
11	0	0	0	0	574
12	0	0	0	0	573
13	0	0	0	0	608
14	0	0	0	0	600
15	0	0	0	0	609
0	0	0	0	0	603
1	0	0	0	0	566
2	0	0	0	0	532
3	0	0	0	0	492
4	0	0	0	0	472
5	0	0	0	0	457
6	0	0	0	0	446
7	0	0	0	0	460
8	0	0	0	0	466
9	0	0	0	0	470
10	0	0	0	0	480
11	0	0	0	0	478
12	0	0	0	0	490
13	0	0	0	0	463
14	0	0	0	0	520
15	0	0	0	0	507
0	0	0	0	0	504
1	0	0	0	0	505
2	0	0	0	0	513
3	0	0	0	0	505
4	0	0	0	0	513
5	0	0	0	0	512
6	0	0	0	0	520
7	0	0	0	0	519
8	0	0	0	0	518
9	0	0	0	0	515
10	0	0	0	0	518
11	0	0	0	0	519
12	0	0	0	0	522
13	0	0	0	0	525
14	0	0	0	0	533
15	0	0	0	0	517
0	0	0	0	0	523
1	0	0	0	0	518
2	0	0	0	0	514
3	0	0	0	0	529
4	0	0	0	0	521
5	0	0	0	0	521
6	0	0	0	0	521
7	0	0	0	0	516
8	0	0	0	0	532
9	0	0	0	0	534
10	0	0	0	0	532
11	0	0	0	0	542
12	0	0	0	0	545
13	0	0	0	0	547
14	0	0	0	0	535
15	0	0	0	0	521
0	0	0	0	0	509
1	0	0	0	0	489
2	0	0	0	0	485
3	0	0	0	0	486
4	0	0	0	0	471
5	0	0	0	0	495
6	0	0	0	0	500
7	0	0	0	0	467
8	0	0	0	0	443
9	0	0	0	0	611
10	0	0	0	0	906
11	0	0	0	0	678
12	0	0	0	0	248
13	0	0	0	0	308
14	0	0	0	0	423
15	0	0	0	0	476
0	0	0	0	0	489
1	0	0	0	0	494
2	0	0	0	0	499
3	0	0	0	0	477
4	0	0	0	0	516
5	0	0	0	0	505
6	0	0	0	0	502
7	0	0	0	0	490
8	0	0	0	0	515
9	0	0	0	0	503
10	0	0	0	0	519
11	0	0	0	0	511
12	0	0	0	0	518
13	0	0	0	0	530
14	0	0	0	0	536
15	0	0	0	0	557
0	0	0	0	0	543
1	0	0	0	0	563
2	0	0	0	0	572
3	0	0	0	0	555
4	0	0	0	0	561
5	0	0	0	0	534
6	0	0	0	0	491
7	0	0	0	0	451
8	0	0	0	0	416
9	0	0	0	0	419
10	0	0	0	0	429
11	0	0	0	0	422
12	0	0	0	0	425
13	0	0	0	0	443
14	0	0	0	0	456
15	0	0	0	0	457
0	0	0	0	0	467
1	0	0	0	0	455
2	0	0	0	0	468
3	0	0	0	0	480
4	0	0	0	0	476
5	0	0	0	0	482
6	0	0	0	0	487
7	0	0	0	0	479
8	0	0	0	0	496
9	0	0	0	0	494
10	0	0	0	0	497
11	0	0	0	0	497
12	0	0	0	0	508
13	0	0	0	0	467
14	0	0	0	0	519
15	0	0	0	0	507
0	0	0	0	0	502
1	0	0	0	0	500
2	0	0	0	0	502
3	0	0	0	0	498
4	0	0	0	0	507
5	0	0	0	0	500
6	0	0	0	0	504
7	0	0	0	0	509
8	0	0	0	0	513
9	0	0	0	0	504
10	0	0	0	0	515
11	0	0	0	0	515
12	0	0	0	0	496
13	0	0	0	0	516
14	0	0	0	0	513
15	0	0	0	0	520
0	0	0	0	0	514
1	0	0	0	0	523
2	0	0	0	0	540
3	0	0	0	0	539
4	0	0	0	0	531
5	0	0	0	0	533
6	0	0	0	0	527
7	0	0	0	0	508
8	0	0	0	0	488
9	0	0	0	0	496
10	0	0	0	0	480
11	0	0	0	0	489
12	0	0	0	0	494
13	0	0	0	0	494
14	0	0	0	0	480
15	0	0	0	0	435
0	0	0	0	0	578
1	0	0	0	0	881
2	0	0	0	0	785
3	0	0	0	0	277
4	0	0	0	0	291
5	0	0	0	0	415
6	0	0	0	0	482
7	0	0	0	0	494
8	0	0	0	0	496
9	0	0	0	0	508
10	0	0	0	0	515
11	0	0	0	0	510
12	0	0	0	0	514
13	0	0	0	0	514
14	0	0	0	0	524
15	0	0	0	0	531
0	0	0	0	0	519
1	0	0	0	0	531
2	0	0	0	0	532
3	0	0	0	0	528
4	0	0	0	0	548
5	0	0	0	0	553
6	0	0	0	0	568
7	0	0	0	0	543
8	0	0	0	0	595
9	0	0	0	0	586
10	0	0	0	0	595
11	0	0	0	0	593
12	0	0	0	0	556
13	0	0	0	0	513
14	0	0	0	0	474
15	0	0	0	0	448
0	0	0	0	0	442
1	0	0	0	0	429
2	0	0	0	0	438
3	0	0	0	0	438
4	0	0	0	0	463
5	0	0	0	0	458
6	0	0	0	0	465
7	0	0	0	0	483
8	0	0	0	0	460
9	0	0	0	0	484
10	0	0	0	0	494
11	0	0	0	0	486
12	0	0	0	0	487
13	0	0	0	0	504
14	0	0	0	0	507
15	0	0	0	0	495
0	0	0	0	0	512
1	0	0	0	0	491
2	0	0	0	0	518
3	0	0	0	0	503
4	0	0	0	0	516
5	0	0	0	0	508
6	0	0	0	0	516
7	0	0	0	0	513
8	0	0	0	0	512
9	0	0	0	0	523
10	0	0	0	0	513
11	0	0	0	0	511
12	0	0	0	0	522
13	0	0	0	0	524
14	0	0	0	0	529
15	0	0	0	0	523
0	0	0	0	0	527
1	0	0	0	0	529
2	0	0	0	0	547
3	0	0	0	0	551
4	0	0	0	0	544
5	0	0	0	0	545
6	0	0	0	0	535
7	0	0	0	0	514
8	0	0	0	0	504
9	0	0	0	0	496
10	0	0	0	0	504
11	0	0	0	0	505
12	0	0	0	0	497
13	0	0	0	0	503
14	0	0	0	0	497
15	0	0	0	0	450
0	0	0	0	0	542
1	0	0	0	0	846
2	0	0	0	0	848
3	0	0	0	0	316
4	0	0	0	0	291
5	0	0	0	0	414
6	0	0	0	0	481
7	0	0	0	0	503
8	0	0	0	0	499
9	0	0	0	0	511
10	0	0	0	0	510
11	0	0	0	0	519
12	0	0	0	0	524
13	0	0	0	0	520
14	0	0	0	0	527
15	0	0	0	0	532
0	0	0	0	0	527
1	0	0	0	0	529
2	0	0	0	0	531
3	0	0	0	0	539
4	0	0	0	0	550
5	0	0	0	0	558
6	0	0	0	0	569
7	0	0	0	0	580
8	0	0	0	0	585
9	0	0	0	0	589
10	0	0	0	0	590
11	0	0	0	0	583
12	0	0	0	0	547
13	0	0	0	0	494
14	0	0	0	0	476
15	0	0	0	0	452
0	0	0	0	0	440
1	0	0	0	0	432
2	0	0	0	0	446
3	0	0	0	0	445
4	0	0	0	0	467
5	0	0	0	0	467
6	0	0	0	0	469
7	0	0	0	0	476
8	0	0	0	0	487
9	0	0	0	0	485
10	0	0	0	0	496
11	0	0	0	0	499
12	0	0	0	0	502
13	0	0	0	0	503
14	0	0	0	0	509
15	0	0	0	0	500
0	0	0	0	0	505
1	0	0	0	0	515
2	0	0	0	0	511
3	0	0	0	0	524
4	0	0	0	0	506
5	0	0	0	0	516
6	0	0	0	0	516
7	0	0	0	0	512
8	0	0	0	0	514
9	0	0	0	0	524
10	0	0	0	0	506
11	0	0	0	0	523
12	0	0	0	0	527
13	0	0	0	0	528
14	0	0	0	0	517
15	0	0	0	0	515
0	0	0	0	0	527
1	0	0	0	0	518
2	0	0	0	0	518
3	0	0	0	0	524
4	0	0	0	0	515
5	0	0	0	0	521
6	0	0	0	0	526
7	0	0	0	0	553
8	0	0	0	0	551
9	0	0	0	0	535
10	0	0	0	0	537
11	0	0	0	0	520
12	0	0	0	0	512
13	0	0	0	0	495
14	0	0	0	0	515
15	0	0	0	0	499
0	0	0	0	0	478
1	0	0	0	0	494
2	0	0	0	0	490
3	0	0	0	0	448
4	0	0	0	0	480
5	0	0	0	0	720
6	0	0	0	0	942
7	0	0	0	0	493
8	0	0	0	0	257
9	0	0	0	0	357
10	0	0	0	0	464
11	0	0	0	0	486
12	0	0	0	0	486
13	0	0	0	0	490
14	0	0	0	0	486
15	0	0	0	0	498
0	0	0	0	0	509
1	0	0	0	0	518
2	0	0	0	0	519
3	0	0	0	0	526
4	0	0	0	0	537
5	0	0	0	0	528
6	0	0	0	0	541
7	0	0	0	0	531
8	0	0	0	0	544
9	0	0	0	0	541
10	0	0	0	0	554
11	0	0	0	0	567
12	0	0	0	0	577
13	0	0	0	0	584
14	0	0	0	0	593
15	0	0	0	0	590
0	0	0	0	0	571
1	0	0	0	0	549
2	0	0	0	0	507
3	0	0	0	0	479
4	0	0	0	0	432
5	0	0	0	0	440
6	0	0	0	0	429
7	0	0	0	0	437
8	0	0	0	0	447
9	0	0	0	0	463
10	0	0	0	0	463
11	0	0	0	0	466
12	0	0	0	0	480
13	0	0	0	0	484
14	0	0	0	0	491
15	0	0	0	0	492
0	0	0	0	0	496
1	0	0	0	0	491
2	0	0	0	0	492
3	0	0	0	0	483
4	0	0	0	0	496
5	0	0	0	0	502
6	0	0	0	0	498
7	0	0	0	0	509
8	0	0	0	0	513
9	0	0	0	0	512
10	0	0	0	0	518
11	0	0	0	0	517
12	0	0	0	0	513
13	0	0	0	0	508
14	0	0	0	0	499
15	0	0	0	0	505
0	0	0	0	0	503
1	0	0	0	0	517
2	0	0	0	0	516
3	0	0	0	0	511
4	0	0	0	0	521
5	0	0	0	0	520
6	0	0	0	0	518
7	0	0	0	0	526
8	0	0	0	0	513
9	0	0	0	0	505
10	0	0	0	0	519
11	0	0	0	0	523
12	0	0	0	0	534
13	0	0	0	0	540
14	0	0	0	0	557
15	0	0	0	0	535
0	0	0	0	0	540
1	0	0	0	0	529
2	0	0	0	0	525
3	0	0	0	0	507
4	0	0	0	0	505
5	0	0	0	0	494
6	0	0	0	0	492
7	0	0	0	0	498
8	0	0	0	0	500
9	0	0	0	0	501
10	0	0	0	0	455
11	0	0	0	0	577
12	0	0	0	0	886
13	0	0	0	0	788
14	0	0	0	0	283
15	0	0	0	0	297
0	0	0	0	0	435
1	0	0	0	0	480
2	0	0	0	0	492
3	0	0	0	0	500
4	0	0	0	0	514
5	0	0	0	0	506
6	0	0	0	0	508
7	0	0	0	0	517
8	0	0	0	0	526
9	0	0	0	0	525
10	0	0	0	0	528
11	0	0	0	0	521
12	0	0	0	0	535
13	0	0	0	0	530
14	0	0	0	0	540
15	0	0	0	0	544
0	0	0	0	0	544
1	0	0	0	0	567
2	0	0	0	0	572
3	0	0	0	0	582
4	0	0	0	0	583
5	0	0	0	0	598
6	0	0	0	0	585
7	0	0	0	0	550
8	0	0	0	0	512
9	0	0	0	0	479
10	0	0	0	0	451
11	0	0	0	0	443
12	0	0	0	0	433
13	0	0	0	0	440
14	0	0	0	0	444
15	0	0	0	0	454
0	0	0	0	0	460
1	0	0	0	0	464
2	0	0	0	0	485
3	0	0	0	0	472
4	0	0	0	0	479
5	0	0	0	0	481
6	0	0	0	0	497
7	0	0	0	0	500
8	0	0	0	0	498
9	0	0	0	0	487
10	0	0	0	0	495
11	0	0	0	0	480
12	0	0	0	0	519
13	0	0	0	0	514
14	0	0	0	0	507
15	0	0	0	0	510
0	0	0	0	0	509
1	0	0	0	0	510
2	0	0	0	0	521
3	0	0	0	0	516
4	0	0	0	0	508
5	0	0	0	0	503
6	0	0	0	0	528
7	0	0	0	0	518
8	0	0	0	0	522
9	0	0	0	0	518
10	0	0	0	0	519
11	0	0	0	0	509
12	0	0	0	0	523
13	0	0	0	0	520
14	0	0	0	0	525
15	0	0	0	0	517
0	0	0	0	0	534
1	0	0	0	0	519
2	0	0	0	0	517
3	0	0	0	0	515
4	0	0	0	0	533
5	0	0	0	0	510
6	0	0	0	0	509
7	0	0	0	0	535
8	0	0	0	0	542
9	0	0	0	0	547
10	0	0	0	0	544
11	0	0	0	0	532
12	0	0	0	0	524
13	0	0	0	0	504
14	0	0	0	0	509
15	0	0	0	0	494
0	0	0	0	0	482
1	0	0	0	0	495
2	0	0	0	0	505
3	0	0	0	0	504
4	0	0	0	0	439
5	0	0	0	0	544
6	0	0	0	0	855
7	0	0	0	0	861
8	0	0	0	0	313
9	0	0	0	0	282
10	0	0	0	0	419
11	0	0	0	0	471
12	0	0	0	0	503
13	0	0	0	0	488
14	0	0	0	0	503
15	0	0	0	0	504
0	0	0	0	0	509
1	0	0	0	0	512
2	0	0	0	0	516
3	0	0	0	0	501
4	0	0	0	0	526
5	0	0	0	0	536
6	0	0	0	0	528
7	0	0	0	0	524
8	0	0	0	0	524
9	0	0	0	0	550
10	0	0	0	0	543
11	0	0	0	0	564
12	0	0	0	0	561
13	0	0	0	0	595
14	0	0	0	0	591
15	0	0	0	0	590
0	0	0	0	0	591
1	0	0	0	0	547
2	0	0	0	0	505
3	0	0	0	0	471
4	0	0	0	0	462
5	0	0	0	0	455
6	0	0	0	0	435
7	0	0	0	0	432
8	0	0	0	0	436
9	0	0	0	0	423
10	0	0	0	0	482
11	0	0	0	0	485
12	0	0	0	0	498
13	0	0	0	0	469
14	0	0	0	0	466
15	0	0	0	0	479
0	0	0	0	0	497
1	0	0	0	0	487
2	0	0	0	0	481
3	0	0	0	0	480
4	0	0	0	0	487
5	0	0	0	0	491
6	0	0	0	0	501
7	0	0	0	0	527
8	0	0	0	0	521
9	0	0	0	0	519
10	0	0	0	0	512
11	0	0	0	0	509
12	0	0	0	0	498
13	0	0	0	0	507
14	0	0	0	0	522
15	0	0	0	0	507
0	0	0	0	0	516
1	0	0	0	0	512
2	0	0	0	0	503
3	0	0	0	0	521
4	0	0	0	0	526
5	0	0	0	0	528
6	0	0	0	0	539
7	0	0	0	0	524
8	0	0	0	0	493
9	0	0	0	0	531
10	0	0	0	0	526
11	0	0	0	0	543
12	0	0	0	0	534
13	0	0	0	0	537
14	0	0	0	0	520
15	0	0	0	0	542
0	0	0	0	0	521
1	0	0	0	0	514
2	0	0	0	0	502
3	0	0	0	0	486
4	0	0	0	0	473
5	0	0	0	0	500
6	0	0	0	0	478
7	0	0	0	0	461
8	0	0	0	0	501
9	0	0	0	0	781
10	0	0	0	0	896
11	0	0	0	0	347
12	0	0	0	0	289
13	0	0	0	0	391
14	0	0	0	0	500
15	0	0	0	0	500
0	0	0	0	0	512
1	0	0	0	0	494
2	0	0	0	0	523
3	0	0	0	0	525
4	0	0	0	0	509
5	0	0	0	0	523
6	0	0	0	0	514
7	0	0	0	0	512
8	0	0	0	0	515
9	0	0	0	0	562
10	0	0	0	0	551
11	0	0	0	0	539
12	0	0	0	0	566
13	0	0	0	0	544
14	0	0	0	0	569
15	0	0	0	0	580
0	0	0	0	0	572
1	0	0	0	0	585
2	0	0	0	0	590
3	0	0	0	0	581
4	0	0	0	0	569
5	0	0	0	0	520
6	0	0	0	0	487
7	0	0	0	0	464
8	0	0	0	0	441
9	0	0	0	0	442
10	0	0	0	0	416
11	0	0	0	0	440
12	0	0	0	0	446
13	0	0	0	0	456
14	0	0	0	0	459
15	0	0	0	0	451
0	0	0	0	0	459
1	0	0	0	0	487
2	0	0	0	0	485
3	0	0	0	0	506
4	0	0	0	0	504
5	0	0	0	0	511
6	0	0	0	0	499
7	0	0	0	0	491
8	0	0	0	0	485
9	0	0	0	0	482
10	0	0	0	0	533
11	0	0	0	0	504
12	0	0	0	0	499
13	0	0	0	0	516
14	0	0	0	0	529
15	0	0	0	0	532
0	0	0	0	0	525
1	0	0	0	0	519
2	0	0	0	0	531
3	0	0	0	0	515
4	0	0	0	0	503
5	0	0	0	0	508
6	0	0	0	0	519
7	0	0	0	0	509
8	0	0	0	0	524
9	0	0	0	0	514
10	0	0	0	0	522
11	0	0	0	0	549
12	0	0	0	0	561
13	0	0	0	0	566
14	0	0	0	0	547
15	0	0	0	0	538
0	0	0	0	0	519
1	0	0	0	0	501
2	0	0	0	0	462
3	0	0	0	0	463
4	0	0	0	0	515
5	0	0	0	0	514
6	0	0	0	0	487
7	0	0	0	0	506
8	0	0	0	0	495
9	0	0	0	0	463
10	0	0	0	0	651
11	0	0	0	0	942
12	0	0	0	0	713
13	0	0	0	0	298
14	0	0	0	0	322
15	0	0	0	0	433
0	0	0	0	0	461
1	0	0	0	0	489
2	0	0	0	0	492
3	0	0	0	0	509
4	0	0	0	0	525
5	0	0	0	0	516
6	0	0	0	0	520
7	0	0	0	0	525
8	0	0	0	0	515
9	0	0	0	0	519
10	0	0	0	0	526
11	0	0	0	0	540
12	0	0	0	0	534
13	0	0	0	0	547
14	0	0	0	0	537
15	0	0	0	0	532
0	0	0	0	0	555
1	0	0	0	0	568
2	0	0	0	0	578
3	0	0	0	0	609
4	0	0	0	0	581
5	0	0	0	0	571
6	0	0	0	0	546
7	0	0	0	0	497
8	0	0	0	0	456
9	0	0	0	0	451
10	0	0	0	0	448
11	0	0	0	0	437
12	0	0	0	0	435
13	0	0	0	0	450
14	0	0	0	0	457
15	0	0	0	0	460
0	0	0	0	0	466
1	0	0	0	0	476
2	0	0	0	0	484
3	0	0	0	0	496
4	0	0	0	0	497
5	0	0	0	0	486
6	0	0	0	0	496
7	0	0	0	0	487
8	0	0	0	0	509
9	0	0	0	0	504
10	0	0	0	0	512
11	0	0	0	0	519
12	0	0	0	0	511
13	0	0	0	0	514
14	0	0	0	0	512
15	0	0	0	0	522
0	0	0	0	0	516
1	0	0	0	0	518
2	0	0	0	0	523
3	0	0	0	0	518
4	0	0	0	0	528
5	0	0	0	0	522
6	0	0	0	0	519
7	0	0	0	0	519
8	0	0	0	0	522
9	0	0	0	0	524
10	0	0	0	0	527
11	0	0	0	0	524
12	0	0	0	0	523
13	0	0	0	0	521
14	0	0	0	0	534
15	0	0	0	0	540
0	0	0	0	0	535
1	0	0	0	0	551
2	0	0	0	0	549
3	0	0	0	0	539
4	0	0	0	0	552
5	0	0	0	0	537
6	0	0	0	0	515
7	0	0	0	0	504
8	0	0	0	0	501
9	0	0	0	0	501
10	0	0	0	0	511
11	0	0	0	0	508
12	0	0	0	0	499
13	0	0	0	0	491
14	0	0	0	0	456
15	0	0	0	0	567
0	0	0	0	0	870
1	0	0	0	0	847
2	0	0	0	0	306
3	0	0	0	0	292
4	0	0	0	0	419
5	0	0	0	0	476
6	0	0	0	0	490
7	0	0	0	0	495
8	0	0	0	0	500
9	0	0	0	0	508
10	0	0	0	0	507
11	0	0	0	0	515
12	0	0	0	0	532
13	0	0	0	0	521
14	0	0	0	0	514
15	0	0	0	0	522
0	0	0	0	0	524
1	0	0	0	0	536
2	0	0	0	0	537
3	0	0	0	0	551
4	0	0	0	0	541
5	0	0	0	0	548
6	0	0	0	0	566
7	0	0	0	0	578
8	0	0	0	0	578
9	0	0	0	0	595
10	0	0	0	0	584
11	0	0	0	0	543
12	0	0	0	0	515
13	0	0	0	0	480
14	0	0	0	0	447
15	0	0	0	0	433
0	0	0	0	0	426
1	0	0	0	0	431
2	0	0	0	0	441
3	0	0	0	0	451
4	0	0	0	0	455
5	0	0	0	0	460
6	0	0	0	0	464
7	0	0	0	0	476
8	0	0	0	0	482
9	0	0	0	0	477
10	0	0	0	0	482
11	0	0	0	0	487
12	0	0	0	0	488
13	0	0	0	0	494
14	0	0	0	0	496
15	0	0	0	0	497
0	0	0	0	0	492
1	0	0	0	0	496
2	0	0	0	0	502
3	0	0	0	0	505
4	0	0	0	0	505
5	0	0	0	0	508
6	0	0	0	0	510
7	0	0	0	0	514
8	0	0	0	0	511
9	0	0	0	0	512
10	0	0	0	0	512
11	0	0	0	0	504
12	0	0	0	0	517
13	0	0	0	0	510
14	0	0	0	0	507
15	0	0	0	0	518
0	0	0	0	0	516
1	0	0	0	0	509
2	0	0	0	0	517
3	0	0	0	0	517
4	0	0	0	0	517
5	0	0	0	0	526
6	0	0	0	0	542
7	0	0	0	0	541
8	0	0	0	0	539
9	0	0	0	0	536
10	0	0	0	0	518
11	0	0	0	0	508
12	0	0	0	0	492
13	0	0	0	0	489
14	0	0	0	0	491
15	0	0	0	0	492
0	0	0	0	0	492
1	0	0	0	0	499
2	0	0	0	0	484
3	0	0	0	0	444
4	0	0	0	0	566
5	0	0	0	0	865
6	0	0	0	0	804
7	0	0	0	0	287
8	0	0	0	0	294
9	0	0	0	0	423
10	0	0	0	0	480
11	0	0	0	0	486
12	0	0	0	0	494
13	0	0	0	0	504
14	0	0	0	0	514
15	0	0	0	0	514
0	0	0	0	0	516
1	0	0	0	0	522
2	0	0	0	0	518
3	0	0	0	0	526
4	0	0	0	0	524
5	0	0	0	0	517
6	0	0	0	0	533
7	0	0	0	0	537
8	0	0	0	0	542
9	0	0	0	0	550
10	0	0	0	0	558
11	0	0	0	0	563
12	0	0	0	0	582
13	0	0	0	0	582
14	0	0	0	0	597
15	0	0	0	0	586
0	0	0	0	0	557
1	0	0	0	0	517
2	0	0	0	0	465
3	0	0	0	0	439
4	0	0	0	0	433
5	0	0	0	0	431
6	0	0	0	0	435
7	0	0	0	0	444
8	0	0	0	0	445
9	0	0	0	0	446
10	0	0	0	0	458
11	0	0	0	0	461
12	0	0	0	0	473
13	0	0	0	0	476
14	0	0	0	0	474
15	0	0	0	0	483
0	0	0	0	0	489
1	0	0	0	0	492
2	0	0	0	0	487
3	0	0	0	0	491
4	0	0	0	0	496
5	0	0	0	0	502
6	0	0	0	0	509
7	0	0	0	0	512
8	0	0	0	0	503
9	0	0	0	0	505
10	0	0	0	0	510
11	0	0	0	0	521
12	0	0	0	0	516
13	0	0	0	0	511
14	0	0	0	0	510
15	0	0	0	0	508
0	0	0	0	0	538
1	0	0	0	0	516
2	0	0	0	0	533
3	0	0	0	0	544
4	0	0	0	0	556
5	0	0	0	0	557
6	0	0	0	0	543
7	0	0	0	0	527
8	0	0	0	0	507
9	0	0	0	0	499
10	0	0	0	0	507
11	0	0	0	0	492
12	0	0	0	0	496
13	0	0	0	0	502
14	0	0	0	0	502
15	0	0	0	0	499
0	0	0	0	0	446
1	0	0	0	0	573
2	0	0	0	0	875
3	0	0	0	0	823
4	0	0	0	0	292
5	0	0	0	0	305
6	0	0	0	0	440
7	0	0	0	0	484
8	0	0	0	0	499
9	0	0	0	0	499
10	0	0	0	0	505
11	0	0	0	0	512
12	0	0	0	0	523
13	0	0	0	0	519
14	0	0	0	0	533
15	0	0	0	0	529
0	0	0	0	0	533
1	0	0	0	0	527
2	0	0	0	0	532
3	0	0	0	0	536
4	0	0	0	0	537
5	0	0	0	0	541
6	0	0	0	0	543
7	0	0	0	0	575
8	0	0	0	0	586
9	0	0	0	0	588
10	0	0	0	0	593
11	0	0	0	0	594
12	0	0	0	0	585
13	0	0	0	0	555
14	0	0	0	0	508
15	0	0	0	0	468
0	0	0	0	0	448
1	0	0	0	0	433
2	0	0	0	0	438
3	0	0	0	0	446
4	0	0	0	0	450
5	0	0	0	0	460
6	0	0	0	0	467
7	0	0	0	0	459
8	0	0	0	0	477
9	0	0	0	0	479
10	0	0	0	0	481
11	0	0	0	0	487
12	0	0	0	0	491
13	0	0	0	0	495
14	0	0	0	0	495
15	0	0	0	0	500
0	0	0	0	0	497
1	0	0	0	0	504
2	0	0	0	0	504
3	0	0	0	0	495
4	0	0	0	0	509
5	0	0	0	0	510
6	0	0	0	0	508
7	0	0	0	0	511
8	0	0	0	0	510
9	0	0	0	0	516
10	0	0	0	0	517
11	0	0	0	0	521
12	0	0	0	0	523
13	0	0	0	0	529
14	0	0	0	0	526
15	0	0	0	0	533
0	0	0	0	0	547
1	0	0	0	0	550
2	0	0	0	0	543
3	0	0	0	0	543
4	0	0	0	0	519
5	0	0	0	0	506
6	0	0	0	0	489
7	0	0	0	0	498
8	0	0	0	0	494
9	0	0	0	0	491
10	0	0	0	0	501
11	0	0	0	0	505
12	0	0	0	0	467
13	0	0	0	0	457
14	0	0	0	0	677
15	0	0	0	0	956
0	0	0	0	0	561
1	0	0	0	0	253
2	0	0	0	0	350
3	0	0	0	0	455
4	0	0	0	0	482
5	0	0	0	0	502
6	0	0	0	0	502
7	0	0	0	0	510
8	0	0	0	0	514
9	0	0	0	0	515
10	0	0	0	0	516
11	0	0	0	0	520
12	0	0	0	0	522
13	0	0	0	0	528
14	0	0	0	0	530
15	0	0	0	0	534
0	0	0	0	0	539
1	0	0	0	0	545
2	0	0	0	0	549
3	0	0	0	0	562
4	0	0	0	0	570
5	0	0	0	0	583
6	0	0	0	0	598
7	0	0	0	0	600
8	0	0	0	0	604
9	0	0	0	0	577
10	0	0	0	0	539
11	0	0	0	0	504
12	0	0	0	0	466
13	0	0	0	0	455
14	0	0	0	0	444
15	0	0	0	0	453
0	0	0	0	0	452
1	0	0	0	0	463
2	0	0	0	0	472
3	0	0	0	0	480
4	0	0	0	0	476
5	0	0	0	0	489
6	0	0	0	0	493
7	0	0	0	0	496
8	0	0	0	0	522
9	0	0	0	0	505
10	0	0	0	0	505
11	0	0	0	0	511
12	0	0	0	0	521
13	0	0	0	0	523
14	0	0	0	0	522
15	0	0	0	0	526
0	0	0	0	0	524
1	0	0	0	0	531
2	0	0	0	0	539
3	0	0	0	0	527
4	0	0	0	0	530
5	0	0	0	0	529
6	0	0	0	0	544
7	0	0	0	0	534
8	0	0	0	0	536
9	0	0	0	0	551
10	0	0	0	0	559
11	0	0	0	0	564
12	0	0	0	0	574
13	0	0	0	0	557
14	0	0	0	0	543
15	0	0	0	0	519
0	0	0	0	0	513
1	0	0	0	0	514
2	0	0	0	0	514
3	0	0	0	0	512
4	0	0	0	0	508
5	0	0	0	0	507
6	0	0	0	0	494
7	0	0	0	0	471
8	0	0	0	0	623
9	0	0	0	0	946
10	0	0	0	0	659
11	0	0	0	0	223
12	0	0	0	0	275
13	0	0	0	0	429
14	0	0	0	0	495
15	0	0	0	0	518
0	0	0	0	0	514
1	0	0	0	0	516
2	0	0	0	0	526
3	0	0	0	0	525
4	0	0	0	0	531
5	0	0	0	0	533
6	0	0	0	0	519
7	0	0	0	0	526
8	0	0	0	0	524
9	0	0	0	0	522
10	0	0	0	0	536
11	0	0	0	0	541
12	0	0	0	0	539
13	0	0	0	0	546
14	0	0	0	0	553
15	0	0	0	0	565
0	0	0	0	0	577
1	0	0	0	0	580
2	0	0	0	0	595
3	0	0	0	0	568
4	0	0	0	0	518
5	0	0	0	0	471
6	0	0	0	0	421
7	0	0	0	0	404
8	0	0	0	0	402
9	0	0	0	0	410
10	0	0	0	0	421
11	0	0	0	0	423
12	0	0	0	0	434
13	0	0	0	0	446
14	0	0	0	0	451
15	0	0	0	0	443
0	0	0	0	0	467
1	0	0	0	0	454
2	0	0	0	0	475
3	0	0	0	0	481
4	0	0	0	0	481
5	0	0	0	0	471
6	0	0	0	0	473
7	0	0	0	0	480
8	0	0	0	0	473
9	0	0	0	0	491
10	0	0	0	0	487
11	0	0	0	0	495
12	0	0	0	0	493
13	0	0	0	0	495
14	0	0	0	0	495
15	0	0	0	0	494
0	0	0	0	0	504
1	0	0	0	0	503
2	0	0	0	0	507
3	0	0	0	0	527
4	0	0	0	0	532
5	0	0	0	0	526
6	0	0	0	0	519
7	0	0	0	0	508
8	0	0	0	0	483
9	0	0	0	0	483
10	0	0	0	0	480
11	0	0	0	0	489
12	0	0	0	0	486
13	0	0	0	0	496
14	0	0	0	0	487
15	0	0	0	0	447
0	0	0	0	0	469
1	0	0	0	0	677
2	0	0	0	0	880
3	0	0	0	0	492
4	0	0	0	0	290
5	0	0	0	0	378
6	0	0	0	0	462
7	0	0	0	0	481
8	0	0	0	0	493
9	0	0	0	0	492
10	0	0	0	0	501
11	0	0	0	0	500
12	0	0	0	0	502
13	0	0	0	0	507
14	0	0	0	0	515
15	0	0	0	0	516
0	0	0	0	0	516
1	0	0	0	0	517
2	0	0	0	0	521
3	0	0	0	0	522
4	0	0	0	0	527
5	0	0	0	0	541
6	0	0	0	0	560
7	0	0	0	0	562
8	0	0	0	0	565
9	0	0	0	0	576
10	0	0	0	0	568
11	0	0	0	0	568
12	0	0	0	0	539
13	0	0	0	0	515
14	0	0	0	0	482
15	0	0	0	0	457
0	0	0	0	0	444
1	0	0	0	0	441
2	0	0	0	0	438
3	0	0	0	0	449
4	0	0	0	0	462
5	0	0	0	0	458
6	0	0	0	0	478
7	0	0	0	0	471
8	0	0	0	0	480
9	0	0	0	0	486
10	0	0	0	0	473
11	0	0	0	0	488
12	0	0	0	0	495
13	0	0	0	0	493
14	0	0	0	0	488
15	0	0	0	0	486
0	0	0	0	0	509
1	0	0	0	0	480
2	0	0	0	0	495
3	0	0	0	0	496
4	0	0	0	0	519
5	0	0	0	0	507
6	0	0	0	0	507
7	0	0	0	0	514
8	0	0	0	0	538
9	0	0	0	0	533
10	0	0	0	0	509
11	0	0	0	0	535
12	0	0	0	0	542
13	0	0	0	0	519
14	0	0	0	0	515
15	0	0	0	0	497
0	0	0	0	0	492
1	0	0	0	0	483
2	0	0	0	0	497
3	0	0	0	0	494
4	0	0	0	0	512
5	0	0	0	0	464
6	0	0	0	0	488
7	0	0	0	0	747
8	0	0	0	0	905
9	0	0	0	0	450
10	0	0	0	0	286
11	0	0	0	0	406
12	0	0	0	0	476
13	0	0	0	0	490
14	0	0	0	0	500
15	0	0	0	0	495
0	0	0	0	0	514
1	0	0	0	0	512
2	0	0	0	0	517
3	0	0	0	0	543
4	0	0	0	0	519
5	0	0	0	0	536
6	0	0	0	0	534
7	0	0	0	0	530
8	0	0	0	0	540
9	0	0	0	0	547
10	0	0	0	0	553
11	0	0	0	0	565
12	0	0	0	0	569
13	0	0	0	0	571
14	0	0	0	0	585
15	0	0	0	0	597
0	0	0	0	0	600
1	0	0	0	0	581
2	0	0	0	0	563
3	0	0	0	0	531
4	0	0	0	0	500
5	0	0	0	0	476
6	0	0	0	0	457
7	0	0	0	0	461
8	0	0	0	0	487
9	0	0	0	0	463
10	0	0	0	0	484
11	0	0	0	0	495
12	0	0	0	0	498
13	0	0	0	0	508
14	0	0	0	0	508
15	0	0	0	0	515
0	0	0	0	0	511
1	0	0	0	0	504
2	0	0	0	0	532
3	0	0	0	0	532
4	0	0	0	0	527
5	0	0	0	0	535
6	0	0	0	0	545
7	0	0	0	0	521
8	0	0	0	0	530
9	0	0	0	0	537
10	0	0	0	0	529
11	0	0	0	0	543
12	0	0	0	0	540
13	0	0	0	0	550
14	0	0	0	0	550
15	0	0	0	0	551
0	0	0	0	0	555
1	0	0	0	0	564
2	0	0	0	0	567
3	0	0	0	0	560
4	0	0	0	0	569
5	0	0	0	0	556
6	0	0	0	0	557
7	0	0	0	0	527
8	0	0	0	0	529
9	0	0	0	0	543
10	0	0	0	0	524
11	0	0	0	0	528
12	0	0	0	0	532
13	0	0	0	0	504
14	0	0	0	0	488
15	0	0	0	0	674
0	0	0	0	0	936
1	0	0	0	0	622
2	0	0	0	0	285
3	0	0	0	0	384
4	0	0	0	0	479
5	0	0	0	0	502
6	0	0	0	0	489
7	0	0	0	0	500
8	0	0	0	0	512
9	0	0	0	0	518
10	0	0	0	0	517
11	0	0	0	0	523
12	0	0	0	0	520
13	0	0	0	0	518
14	0	0	0	0	529
15	0	0	0	0	519
0	0	0	0	0	534
1	0	0	0	0	538
2	0	0	0	0	531
3	0	0	0	0	542
4	0	0	0	0	548
5	0	0	0	0	544
6	0	0	0	0	567
7	0	0	0	0	578
8	0	0	0	0	576
9	0	0	0	0	568
10	0	0	0	0	560
11	0	0	0	0	526
12	0	0	0	0	486
13	0	0	0	0	452
14	0	0	0	0	430
15	0	0	0	0	428
0	0	0	0	0	422
1	0	0	0	0	432
2	0	0	0	0	428
3	0	0	0	0	421
4	0	0	0	0	457
5	0	0	0	0	472
6	0	0	0	0	462
7	0	0	0	0	474
8	0	0	0	0	467
9	0	0	0	0	471
10	0	0	0	0	481
11	0	0	0	0	480
12	0	0	0	0	479
13	0	0	0	0	476
14	0	0	0	0	480
15	0	0	0	0	490
0	0	0	0	0	479
1	0	0	0	0	492
2	0	0	0	0	487
3	0	0	0	0	499
4	0	0	0	0	486
5	0	0	0	0	488
6	0	0	0	0	496
7	0	0	0	0	497
8	0	0	0	0	506
9	0	0	0	0	497
10	0	0	0	0	505
11	0	0	0	0	521
12	0	0	0	0	533
13	0	0	0	0	521
14	0	0	0	0	522
15	0	0	0	0	514
0	0	0	0	0	496
1	0	0	0	0	480
2	0	0	0	0	478
3	0	0	0	0	501
4	0	0	0	0	476
5	0	0	0	0	477
6	0	0	0	0	494
7	0	0	0	0	486
8	0	0	0	0	429
9	0	0	0	0	531
10	0	0	0	0	798
11	0	0	0	0	860
12	0	0	0	0	328
13	0	0	0	0	308
14	0	0	0	0	430
15	0	0	0	0	475
0	0	0	0	0	490
1	0	0	0	0	495
2	0	0	0	0	508
3	0	0	0	0	500
4	0	0	0	0	504
5	0	0	0	0	517
6	0	0	0	0	513
7	0	0	0	0	496
8	0	0	0	0	531
9	0	0	0	0	527
10	0	0	0	0	535
11	0	0	0	0	515
12	0	0	0	0	515
13	0	0	0	0	540
14	0	0	0	0	548
15	0	0	0	0	542
0	0	0	0	0	561
1	0	0	0	0	557
2	0	0	0	0	574
3	0	0	0	0	577
4	0	0	0	0	552
5	0	0	0	0	543
6	0	0	0	0	509
7	0	0	0	0	471
8	0	0	0	0	441
9	0	0	0	0	437
10	0	0	0	0	436
11	0	0	0	0	423
12	0	0	0	0	432
13	0	0	0	0	448
14	0	0	0	0	448
15	0	0	0	0	470
0	0	0	0	0	460
1	0	0	0	0	472
2	0	0	0	0	487
3	0	0	0	0	480
4	0	0	0	0	472
5	0	0	0	0	492
6	0	0	0	0	489
7	0	0	0	0	488
8	0	0	0	0	492
9	0	0	0	0	502
10	0	0	0	0	498
11	0	0	0	0	492
12	0	0	0	0	506
13	0	0	0	0	504
14	0	0	0	0	518
15	0	0	0	0	508
0	0	0	0	0	505
1	0	0	0	0	520
2	0	0	0	0	517
3	0	0	0	0	519
4	0	0	0	0	528
5	0	0	0	0	528
6	0	0	0	0	538
7	0	0	0	0	540
8	0	0	0	0	543
9	0	0	0	0	549
10	0	0	0	0	529
11	0	0	0	0	512
12	0	0	0	0	496
13	0	0	0	0	502
14	0	0	0	0	495
15	0	0	0	0	502
0	0	0	0	0	496
1	0	0	0	0	509
2	0	0	0	0	497
3	0	0	0	0	455
4	0	0	0	0	576
5	0	0	0	0	883
6	0	0	0	0	755
7	0	0	0	0	276
8	0	0	0	0	316
9	0	0	0	0	449
10	0	0	0	0	496
11	0	0	0	0	499
12	0	0	0	0	511
13	0	0	0	0	515
14	0	0	0	0	514
15	0	0	0	0	525
0	0	0	0	0	526
1	0	0	0	0	522
2	0	0	0	0	528
3	0	0	0	0	535
4	0	0	0	0	535
5	0	0	0	0	534
6	0	0	0	0	531
7	0	0	0	0	541
8	0	0	0	0	560
9	0	0	0	0	553
10	0	0	0	0	564
11	0	0	0	0	567
12	0	0	0	0	586
13	0	0	0	0	593
14	0	0	0	0	584
15	0	0	0	0	572
0	0	0	0	0	542
1	0	0	0	0	512
2	0	0	0	0	468
3	0	0	0	0	450
4	0	0	0	0	441
5	0	0	0	0	435
6	0	0	0	0	451
7	0	0	0	0	455
8	0	0	0	0	460
9	0	0	0	0	469
10	0	0	0	0	471
11	0	0	0	0	495
12	0	0	0	0	480
13	0	0	0	0	484
14	0	0	0	0	487
15	0	0	0	0	510
0	0	0	0	0	495
1	0	0	0	0	497
2	0	0	0	0	496
3	0	0	0	0	506
4	0	0	0	0	509
5	0	0	0	0	510
6	0	0	0	0	502
7	0	0	0	0	520
8	0	0	0	0	513
9	0	0	0	0	514
10	0	0	0	0	520
11	0	0	0	0	521
12	0	0	0	0	507
13	0	0	0	0	520
14	0	0	0	0	526
15	0	0	0	0	525
0	0	0	0	0	529
1	0	0	0	0	544
2	0	0	0	0	545
3	0	0	0	0	547
4	0	0	0	0	546
5	0	0	0	0	531
6	0	0	0	0	512
7	0	0	0	0	509
8	0	0	0	0	497
9	0	0	0	0	499
10	0	0	0	0	494
11	0	0	0	0	499
12	0	0	0	0	510
13	0	0	0	0	496
14	0	0	0	0	455
15	0	0	0	0	509
0	0	0	0	0	773
1	0	0	0	0	907
2	0	0	0	0	355
3	0	0	0	0	268
4	0	0	0	0	395
5	0	0	0	0	481
6	0	0	0	0	504
7	0	0	0	0	501
8	0	0	0	0	513
9	0	0	0	0	516
10	0	0	0	0	518
11	0	0	0	0	519
12	0	0	0	0	527
13	0	0	0	0	521
14	0	0	0	0	528
15	0	0	0	0	536
0	0	0	0	0	523
1	0	0	0	0	535
2	0	0	0	0	536
3	0	0	0	0	549
4	0	0	0	0	554
5	0	0	0	0	559
6	0	0	0	0	570
7	0	0	0	0	577
8	0	0	0	0	582
9	0	0	0	0	583
10	0	0	0	0	581
11	0	0	0	0	552
12	0	0	0	0	515
13	0	0	0	0	480
14	0	0	0	0	464
15	0	0	0	0	433
0	0	0	0	0	438
1	0	0	0	0	442
2	0	0	0	0	454
3	0	0	0	0	465
4	0	0	0	0	451
5	0	0	0	0	473
6	0	0	0	0	475
7	0	0	0	0	480
8	0	0	0	0	491
9	0	0	0	0	480
10	0	0	0	0	487
11	0	0	0	0	494
12	0	0	0	0	488
13	0	0	0	0	506
14	0	0	0	0	497
15	0	0	0	0	496
0	0	0	0	0	502
1	0	0	0	0	512
2	0	0	0	0	498
3	0	0	0	0	500
4	0	0	0	0	515
5	0	0	0	0	514
6	0	0	0	0	520
7	0	0	0	0	524
8	0	0	0	0	513
9	0	0	0	0	533
10	0	0	0	0	546
11	0	0	0	0	542
12	0	0	0	0	537
13	0	0	0	0	531
14	0	0	0	0	513
15	0	0	0	0	506
0	0	0	0	0	495
1	0	0	0	0	495
2	0	0	0	0	488
3	0	0	0	0	501
4	0	0	0	0	499
5	0	0	0	0	504
6	0	0	0	0	451
7	0	0	0	0	525
8	0	0	0	0	818
9	0	0	0	0	880
10	0	0	0	0	295
11	0	0	0	0	273
12	0	0	0	0	412
13	0	0	0	0	484
14	0	0	0	0	503
15	0	0	0	0	508
0	0	0	0	0	515
1	0	0	0	0	521
2	0	0	0	0	518
3	0	0	0	0	525
4	0	0	0	0	524
5	0	0	0	0	539
6	0	0	0	0	536
7	0	0	0	0	529
8	0	0	0	0	542
9	0	0	0	0	541
10	0	0	0	0	540
11	0	0	0	0	543
12	0	0	0	0	553
13	0	0	0	0	570
14	0	0	0	0	574
15	0	0	0	0	584
0	0	0	0	0	586
1	0	0	0	0	587
2	0	0	0	0	565
3	0	0	0	0	547
4	0	0	0	0	500
5	0	0	0	0	471
6	0	0	0	0	448
7	0	0	0	0	440
8	0	0	0	0	444
9	0	0	0	0	435
10	0	0	0	0	447
11	0	0	0	0	454
12	0	0	0	0	463
13	0	0	0	0	472
14	0	0	0	0	481
15	0	0	0	0	476
0	0	0	0	0	481
1	0	0	0	0	491
2	0	0	0	0	490
3	0	0	0	0	491
4	0	0	0	0	498
5	0	0	0	0	504
6	0	0	0	0	511
7	0	0	0	0	505
8	0	0	0	0	509
9	0	0	0	0	507
10	0	0	0	0	511
11	0	0	0	0	509
12	0	0	0	0	510
13	0	0	0	0	514
14	0	0	0	0	525
15	0	0	0	0	523
0	0	0	0	0	526
1	0	0	0	0	532
2	0	0	0	0	548
3	0	0	0	0	539
4	0	0	0	0	546
5	0	0	0	0	539
6	0	0	0	0	510
7	0	0	0	0	498
8	0	0	0	0	496
9	0	0	0	0	496
10	0	0	0	0	491
11	0	0	0	0	501
12	0	0	0	0	505
13	0	0	0	0	493
14	0	0	0	0	449
15	0	0	0	0	555
0	0	0	0	0	856
1	0	0	0	0	827
2	0	0	0	0	279
3	0	0	0	0	291
4	0	0	0	0	423
5	0	0	0	0	492
6	0	0	0	0	499
7	0	0	0	0	504
8	0	0	0	0	524
9	0	0	0	0	521
10	0	0	0	0	525
11	0	0	0	0	525
12	0	0	0	0	527
13	0	0	0	0	529
14	0	0	0	0	527
15	0	0	0	0	540
0	0	0	0	0	535
1	0	0	0	0	541
2	0	0	0	0	535
3	0	0	0	0	551
4	0	0	0	0	553
5	0	0	0	0	572
6	0	0	0	0	566
7	0	0	0	0	579
8	0	0	0	0	587
9	0	0	0	0	583
10	0	0	0	0	572
11	0	0	0	0	546
12	0	0	0	0	499
13	0	0	0	0	472
14	0	0	0	0	449
15	0	0	0	0	439
0	0	0	0	0	450
1	0	0	0	0	442
2	0	0	0	0	443
3	0	0	0	0	453
4	0	0	0	0	467
5	0	0	0	0	475
6	0	0	0	0	472
7	0	0	0	0	470
8	0	0	0	0	483
9	0	0	0	0	490
10	0	0	0	0	486
11	0	0	0	0	490
12	0	0	0	0	505
13	0	0	0	0	502
14	0	0	0	0	503
15	0	0	0	0	499
0	0	0	0	0	501
1	0	0	0	0	515
2	0	0	0	0	509
3	0	0	0	0	520
4	0	0	0	0	528
5	0	0	0	0	533
6	0	0	0	0	542
7	0	0	0	0	541
8	0	0	0	0	532
9	0	0	0	0	524
10	0	0	0	0	500
11	0	0	0	0	491
12	0	0	0	0	496
13	0	0	0	0	499
14	0	0	0	0	488
15	0	0	0	0	487
0	0	0	0	0	500
1	0	0	0	0	471
2	0	0	0	0	466
3	0	0	0	0	665
4	0	0	0	0	945
5	0	0	0	0	563
6	0	0	0	0	242
7	0	0	0	0	344
8	0	0	0	0	463
9	0	0	0	0	492
10	0	0	0	0	495
11	0	0	0	0	506
12	0	0	0	0	519
13	0	0	0	0	519
14	0	0	0	0	526
15	0	0	0	0	523
0	0	0	0	0	529
1	0	0	0	0	526
2	0	0	0	0	524
3	0	0	0	0	535
4	0	0	0	0	540
5	0	0	0	0	545
6	0	0	0	0	540
7	0	0	0	0	555
8	0	0	0	0	558
9	0	0	0	0	578
10	0	0	0	0	579
11	0	0	0	0	583
12	0	0	0	0	591
13	0	0	0	0	578
14	0	0	0	0	559
15	0	0	0	0	529
0	0	0	0	0	477
1	0	0	0	0	465
2	0	0	0	0	444
3	0	0	0	0	434
4	0	0	0	0	436
5	0	0	0	0	451
6	0	0	0	0	452
7	0	0	0	0	461
8	0	0	0	0	468
9	0	0	0	0	472
10	0	0	0	0	475
11	0	0	0	0	487
12	0	0	0	0	485
13	0	0	0	0	489
14	0	0	0	0	491
15	0	0	0	0	495
0	0	0	0	0	500
1	0	0	0	0	501
2	0	0	0	0	499
3	0	0	0	0	507
4	0	0	0	0	515
5	0	0	0	0	512
6	0	0	0	0	522
7	0	0	0	0	535
8	0	0	0	0	545
9	0	0	0	0	537
10	0	0	0	0	534
11	0	0	0	0	530
12	0	0	0	0	522
13	0	0	0	0	499
14	0	0	0	0	502
15	0	0	0	0	493
0	0	0	0	0	492
1	0	0	0	0	494
2	0	0	0	0	492
3	0	0	0	0	495
4	0	0	0	0	455
5	0	0	0	0	509
6	0	0	0	0	780
7	0	0	0	0	927
8	0	0	0	0	359
9	0	0	0	0	263
10	0	0	0	0	386
11	0	0	0	0	486
12	0	0	0	0	497
13	0	0	0	0	509
14	0	0	0	0	513
15	0	0	0	0	516
0	0	0	0	0	510
1	0	0	0	0	530
2	0	0	0	0	519
3	0	0	0	0	530
4	0	0	0	0	535
5	0	0	0	0	538
6	0	0	0	0	531
7	0	0	0	0	538
8	0	0	0	0	536
9	0	0	0	0	543
10	0	0	0	0	553
11	0	0	0	0	560
12	0	0	0	0	572
13	0	0	0	0	587
14	0	0	0	0	585
15	0	0	0	0	596
0	0	0	0	0	574
1	0	0	0	0	538
2	0	0	0	0	496
3	0	0	0	0	472
4	0	0	0	0	446
5	0	0	0	0	440
6	0	0	0	0	440
7	0	0	0	0	447
8	0	0	0	0	443
9	0	0	0	0	455
10	0	0	0	0	465
11	0	0	0	0	466
12	0	0	0	0	474
13	0	0	0	0	485
14	0	0	0	0	481
15	0	0	0	0	485
0	0	0	0	0	484
1	0	0	0	0	499
2	0	0	0	0	498
3	0	0	0	0	499
4	0	0	0	0	499
5	0	0	0	0	500
6	0	0	0	0	508
7	0	0	0	0	516
8	0	0	0	0	513
9	0	0	0	0	527
10	0	0	0	0	526
11	0	0	0	0	538
12	0	0	0	0	539
13	0	0	0	0	539
14	0	0	0	0	536
15	0	0	0	0	514
0	0	0	0	0	513
1	0	0	0	0	496
2	0	0	0	0	492
3	0	0	0	0	495
4	0	0	0	0	499
5	0	0	0	0	506
6	0	0	0	0	502
7	0	0	0	0	450
8	0	0	0	0	483
9	0	0	0	0	720
10	0	0	0	0	931
11	0	0	0	0	426
12	0	0	0	0	261
13	0	0	0	0	362
14	0	0	0	0	475
15	0	0	0	0	498
0	0	0	0	0	509
1	0	0	0	0	515
2	0	0	0	0	527
3	0	0	0	0	519
4	0	0	0	0	524
5	0	0	0	0	532
6	0	0	0	0	537
7	0	0	0	0	536
8	0	0	0	0	527
9	0	0	0	0	542
10	0	0	0	0	535
11	0	0	0	0	545
12	0	0	0	0	555
13	0	0	0	0	563
14	0	0	0	0	558
15	0	0	0	0	570
0	0	0	0	0	584
1	0	0	0	0	593
2	0	0	0	0	595
3	0	0	0	0	579
4	0	0	0	0	543
5	0	0	0	0	502
6	0	0	0	0	464
7	0	0	0	0	446
8	0	0	0	0	430
9	0	0	0	0	432
10	0	0	0	0	442
11	0	0	0	0	442
12	0	0	0	0	457
13	0	0	0	0	462
14	0	0	0	0	470
15	0	0	0	0	474
0	0	0	0	0	480
1	0	0	0	0	488
2	0	0	0	0	489
3	0	0	0	0	487
4	0	0	0	0	494
5	0	0	0	0	494
6	0	0	0	0	496
7	0	0	0	0	500
8	0	0	0	0	508
9	0	0	0	0	510
10	0	0	0	0	508
11	0	0	0	0	506
12	0	0	0	0	511
13	0	0	0	0	519
14	0	0	0	0	530
15	0	0	0	0	540
0	0	0	0	0	542
1	0	0	0	0	540
2	0	0	0	0	537
3	0	0	0	0	536
4	0	0	0	0	515
5	0	0	0	0	505
6	0	0	0	0	494
7	0	0	0	0	492
8	0	0	0	0	491
9	0	0	0	0	496
10	0	0	0	0	501
11	0	0	0	0	504
12	0	0	0	0	439
13	0	0	0	0	530
14	0	0	0	0	842
15	0	0	0	0	838
0	0	0	0	0	307
1	0	0	0	0	295
2	0	0	0	0	423
3	0	0	0	0	483
4	0	0	0	0	505
5	0	0	0	0	504
6	0	0	0	0	510
7	0	0	0	0	517
8	0	0	0	0	511
9	0	0	0	0	524
10	0	0	0	0	529
11	0	0	0	0	524
12	0	0	0	0	525
13	0	0	0	0	535
14	0	0	0	0	536
15	0	0	0	0	538
0	0	0	0	0	544
1	0	0	0	0	546
2	0	0	0	0	560
3	0	0	0	0	555
4	0	0	0	0	570
5	0	0	0	0	582
6	0	0	0	0	582
7	0	0	0	0	588
8	0	0	0	0	568
9	0	0	0	0	528
10	0	0	0	0	498
11	0	0	0	0	464
12	0	0	0	0	436
13	0	0	0	0	448
14	0	0	0	0	440
15	0	0	0	0	439
0	0	0	0	0	453
1	0	0	0	0	464
2	0	0	0	0	460
3	0	0	0	0	474
4	0	0	0	0	480
5	0	0	0	0	483
6	0	0	0	0	485
7	0	0	0	0	495
8	0	0	0	0	492
9	0	0	0	0	488
10	0	0	0	0	496
11	0	0	0	0	502
12	0	0	0	0	507
13	0	0	0	0	504
14	0	0	0	0	502
15	0	0	0	0	501
0	0	0	0	0	505
1	0	0	0	0	512
2	0	0	0	0	518
3	0	0	0	0	505
4	0	0	0	0	521
5	0	0	0	0	521
6	0	0	0	0	529
7	0	0	0	0	534
8	0	0	0	0	547
9	0	0	0	0	540
10	0	0	0	0	547
11	0	0	0	0	535
12	0	0	0	0	517
13	0	0	0	0	497
14	0	0	0	0	497
15	0	0	0	0	496
0	0	0	0	0	488
1	0	0	0	0	500
2	0	0	0	0	493
3	0	0	0	0	495
4	0	0	0	0	440
5	0	0	0	0	515
6	0	0	0	0	808
7	0	0	0	0	892
8	0	0	0	0	342
9	0	0	0	0	283
10	0	0	0	0	411
11	0	0	0	0	475
12	0	0	0	0	503
13	0	0	0	0	505
14	0	0	0	0	513
15	0	0	0	0	517
0	0	0	0	0	518
1	0	0	0	0	518
2	0	0	0	0	527
3	0	0	0	0	526
4	0	0	0	0	529
5	0	0	0	0	527
6	0	0	0	0	531
7	0	0	0	0	541
8	0	0	0	0	538
9	0	0	0	0	547
10	0	0	0	0	554
11	0	0	0	0	563
12	0	0	0	0	561
13	0	0	0	0	578
14	0	0	0	0	581
15	0	0	0	0	591
0	0	0	0	0	581
1	0	0	0	0	545
2	0	0	0	0	504
3	0	0	0	0	464
4	0	0	0	0	449
5	0	0	0	0	436
6	0	0	0	0	439
7	0	0	0	0	448
8	0	0	0	0	449
9	0	0	0	0	457
10	0	0	0	0	468
11	0	0	0	0	480
12	0	0	0	0	472
13	0	0	0	0	482
14	0	0	0	0	479
15	0	0	0	0	488
0	0	0	0	0	495
1	0	0	0	0	493
2	0	0	0	0	490
3	0	0	0	0	499
4	0	0	0	0	495
5	0	0	0	0	501
6	0	0	0	0	510
7	0	0	0	0	509
8	0	0	0	0	505
9	0	0	0	0	511
10	0	0	0	0	507
11	0	0	0	0	508
12	0	0	0	0	506
13	0	0	0	0	510
14	0	0	0	0	515
15	0	0	0	0	523
0	0	0	0	0	515
1	0	0	0	0	513
2	0	0	0	0	524
3	0	0	0	0	530
4	0	0	0	0	527
5	0	0	0	0	533
6	0	0	0	0	553
7	0	0	0	0	549
8	0	0	0	0	547
9	0	0	0	0	546
10	0	0	0	0	525
11	0	0	0	0	497
12	0	0	0	0	496
13	0	0	0	0	498
14	0	0	0	0	505
15	0	0	0	0	500
0	0	0	0	0	510
1	0	0	0	0	512
2	0	0	0	0	452
3	0	0	0	0	494
4	0	0	0	0	744
5	0	0	0	0	941
6	0	0	0	0	436
7	0	0	0	0	267
8	0	0	0	0	377
9	0	0	0	0	468
10	0	0	0	0	499
11	0	0	0	0	511
12	0	0	0	0	506
13	0	0	0	0	523
14	0	0	0	0	515
15	0	0	0	0	529
0	0	0	0	0	528
1	0	0	0	0	527
2	0	0	0	0	533
3	0	0	0	0	528
4	0	0	0	0	535
5	0	0	0	0	538
6	0	0	0	0	542
7	0	0	0	0	553
8	0	0	0	0	549
9	0	0	0	0	561
10	0	0	0	0	580
11	0	0	0	0	577
12	0	0	0	0	591
13	0	0	0	0	601
14	0	0	0	0	589
15	0	0	0	0	569
0	0	0	0	0	521
1	0	0	0	0	489
2	0	0	0	0	452
3	0	0	0	0	453
4	0	0	0	0	447
5	0	0	0	0	451
6	0	0	0	0	452
7	0	0	0	0	463
8	0	0	0	0	463
9	0	0	0	0	476
10	0	0	0	0	475
11	0	0	0	0	491
12	0	0	0	0	487
13	0	0	0	0	500
14	0	0	0	0	496
15	0	0	0	0	501
0	0	0	0	0	504
1	0	0	0	0	505
2	0	0	0	0	504
3	0	0	0	0	511
4	0	0	0	0	511
5	0	0	0	0	513
6	0	0	0	0	517
7	0	0	0	0	523
8	0	0	0	0	523
9	0	0	0	0	518
10	0	0	0	0	525
11	0	0	0	0	525
12	0	0	0	0	518
13	0	0	0	0	528
14	0	0	0	0	516
15	0	0	0	0	523
0	0	0	0	0	525
1	0	0	0	0	522
2	0	0	0	0	527
3	0	0	0	0	529
4	0	0	0	0	538
5	0	0	0	0	545
6	0	0	0	0	557
7	0	0	0	0	548
8	0	0	0	0	546
9	0	0	0	0	541
10	0	0	0	0	518
11	0	0	0	0	512
12	0	0	0	0	500
13	0	0	0	0	499
14	0	0	0	0	493
15	0	0	0	0	492
0	0	0	0	0	505
1	0	0	0	0	492
2	0	0	0	0	447
3	0	0	0	0	542
4	0	0	0	0	832
5	0	0	0	0	830
6	0	0	0	0	294
7	0	0	0	0	274
8	0	0	0	0	403
9	0	0	0	0	490
10	0	0	0	0	498
11	0	0	0	0	508
12	0	0	0	0	509
13	0	0	0	0	512
14	0	0	0	0	522
15	0	0	0	0	519
0	0	0	0	0	518
1	0	0	0	0	529
2	0	0	0	0	524
3	0	0	0	0	525
4	0	0	0	0	528
5	0	0	0	0	534
6	0	0	0	0	532
7	0	0	0	0	537
8	0	0	0	0	542
9	0	0	0	0	560
10	0	0	0	0	564
11	0	0	0	0	579
12	0	0	0	0	580
13	0	0	0	0	587
14	0	0	0	0	568
15	0	0	0	0	537
0	0	0	0	0	485
1	0	0	0	0	449
2	0	0	0	0	433
3	0	0	0	0	420
4	0	0	0	0	419
5	0	0	0	0	424
6	0	0	0	0	435
7	0	0	0	0	432
8	0	0	0	0	448
9	0	0	0	0	451
10	0	0	0	0	457
11	0	0	0	0	468
12	0	0	0	0	465
13	0	0	0	0	474
14	0	0	0	0	472
15	0	0	0	0	475
0	0	0	0	0	479
1	0	0	0	0	487
2	0	0	0	0	492
3	0	0	0	0	490
4	0	0	0	0	494
5	0	0	0	0	496
6	0	0	0	0	500
7	0	0	0	0	494
8	0	0	0	0	502
9	0	0	0	0	505
10	0	0	0	0	503
11	0	0	0	0	497
12	0	0	0	0	505
13	0	0	0	0	508
14	0	0	0	0	513
15	0	0	0	0	518
0	0	0	0	0	535
1	0	0	0	0	532
2	0	0	0	0	534
3	0	0	0	0	529
4	0	0	0	0	510
5	0	0	0	0	502
6	0	0	0	0	495
7	0	0	0	0	481
8	0	0	0	0	488
9	0	0	0	0	487
10	0	0	0	0	496
11	0	0	0	0	496
12	0	0	0	0	442
13	0	0	0	0	535
14	0	0	0	0	817
15	0	0	0	0	849
0	0	0	0	0	297
1	0	0	0	0	281
2	0	0	0	0	412
3	0	0	0	0	482
4	0	0	0	0	497
5	0	0	0	0	502
6	0	0	0	0	495
7	0	0	0	0	508
8	0	0	0	0	518
9	0	0	0	0	527
10	0	0	0	0	515
11	0	0	0	0	515
12	0	0	0	0	525
13	0	0	0	0	532
14	0	0	0	0	520
15	0	0	0	0	534
0	0	0	0	0	546
1	0	0	0	0	541
2	0	0	0	0	547
3	0	0	0	0	551
4	0	0	0	0	572
5	0	0	0	0	573
6	0	0	0	0	596
7	0	0	0	0	592
8	0	0	0	0	568
9	0	0	0	0	538
10	0	0	0	0	479
11	0	0	0	0	461
12	0	0	0	0	441
13	0	0	0	0	437
14	0	0	0	0	438
15	0	0	0	0	443
0	0	0	0	0	451
1	0	0	0	0	462
2	0	0	0	0	448
3	0	0	0	0	475
4	0	0	0	0	477
5	0	0	0	0	487
6	0	0	0	0	486
7	0	0	0	0	486
8	0	0	0	0	499
9	0	0	0	0	504
10	0	0	0	0	498
11	0	0	0	0	491
12	0	0	0	0	507
13	0	0	0	0	514
14	0	0	0	0	535
15	0	0	0	0	510
0	0	0	0	0	510
1	0	0	0	0	508
2	0	0	0	0	511
3	0	0	0	0	513
4	0	0	0	0	524
5	0	0	0	0	520
6	0	0	0	0	534
7	0	0	0	0	542
8	0	0	0	0	522
9	0	0	0	0	547
10	0	0	0	0	552
11	0	0	0	0	547
12	0	0	0	0	548
13	0	0	0	0	542
14	0	0	0	0	533
15	0	0	0	0	509
0	0	0	0	0	501
1	0	0	0	0	519
2	0	0	0	0	520
3	0	0	0	0	517
4	0	0	0	0	487
5	0	0	0	0	489
6	0	0	0	0	454
7	0	0	0	0	676
8	0	0	0	0	954
9	0	0	0	0	657
10	0	0	0	0	272
11	0	0	0	0	324
12	0	0	0	0	453
13	0	0	0	0	496
14	0	0	0	0	487
15	0	0	0	0	525
0	0	0	0	0	524
1	0	0	0	0	511
2	0	0	0	0	527
3	0	0	0	0	520
4	0	0	0	0	528
5	0	0	0	0	542
6	0	0	0	0	532
7	0	0	0	0	516
8	0	0	0	0	529
9	0	0	0	0	525
10	0	0	0	0	552
11	0	0	0	0	554
12	0	0	0	0	549
13	0	0	0	0	561
14	0	0	0	0	590
15	0	0	0	0	577
0	0	0	0	0	591
1	0	0	0	0	567
2	0	0	0	0	547
3	0	0	0	0	512
4	0	0	0	0	493
5	0	0	0	0	465
6	0	0	0	0	462
7	0	0	0	0	452
8	0	0	0	0	412
9	0	0	0	0	439
10	0	0	0	0	437
11	0	0	0	0	469
12	0	0	0	0	452
13	0	0	0	0	464
14	0	0	0	0	462
15	0	0	0	0	464
0	0	0	0	0	489
1	0	0	0	0	502
2	0	0	0	0	487
3	0	0	0	0	477
4	0	0	0	0	499
5	0	0	0	0	543
6	0	0	0	0	475
7	0	0	0	0	464
8	0	0	0	0	493
9	0	0	0	0	485
10	0	0	0	0	504
11	0	0	0	0	509
12	0	0	0	0	531
13	0	0	0	0	574
14	0	0	0	0	513
15	0	0	0	0	521
0	0	0	0	0	515
1	0	0	0	0	525
2	0	0	0	0	526
3	0	0	0	0	540
4	0	0	0	0	546
5	0	0	0	0	545
6	0	0	0	0	546
7	0	0	0	0	534
8	0	0	0	0	499
9	0	0	0	0	486
10	0	0	0	0	486
11	0	0	0	0	482
12	0	0	0	0	495
13	0	0	0	0	535
14	0	0	0	0	453
15	0	0	0	0	436
0	0	0	0	0	612
1	0	0	0	0	907
2	0	0	0	0	575
3	0	0	0	0	269
4	0	0	0	0	337
5	0	0	0	0	432
6	0	0	0	0	495
7	0	0	0	0	502
8	0	0	0	0	505
9	0	0	0	0	504
10	0	0	0	0	514
11	0	0	0	0	519
12	0	0	0	0	516
13	0	0	0	0	531
14	0	0	0	0	524
15	0	0	0	0	528
0	0	0	0	0	539
1	0	0	0	0	533
2	0	0	0	0	548
3	0	0	0	0	553
4	0	0	0	0	549
5	0	0	0	0	579
6	0	0	0	0	622
7	0	0	0	0	587
8	0	0	0	0	600
9	0	0	0	0	626
10	0	0	0	0	608
11	0	0	0	0	577
12	0	0	0	0	542
13	0	0	0	0	506
14	0	0	0	0	466
15	0	0	0	0	455
0	0	0	0	0	452
1	0	0	0	0	475
2	0	0	0	0	498
3	0	0	0	0	501
4	0	0	0	0	468
5	0	0	0	0	486
6	0	0	0	0	480
7	0	0	0	0	500
8	0	0	0	0	496
9	0	0	0	0	511
10	0	0	0	0	527
11	0	0	0	0	505
12	0	0	0	0	554
13	0	0	0	0	559
14	0	0	0	0	532
15	0	0	0	0	562
0	0	0	0	0	541
1	0	0	0	0	548
2	0	0	0	0	598
3	0	0	0	0	555
4	0	0	0	0	527
5	0	0	0	0	543
6	0	0	0	0	531
7	0	0	0	0	545
8	0	0	0	0	591
9	0	0	0	0	557
10	0	0	0	0	534
11	0	0	0	0	537
12	0	0	0	0	552
13	0	0	0	0	533
14	0	0	0	0	471
15	0	0	0	0	493
0	0	0	0	0	498
1	0	0	0	0	493
2	0	0	0	0	487
3	0	0	0	0	469
4	0	0	0	0	458
5	0	0	0	0	475
6	0	0	0	0	405
7	0	0	0	0	499
8	0	0	0	0	748
9	0	0	0	0	800
10	0	0	0	0	360
11	0	0	0	0	313
12	0	0	0	0	405
13	0	0	0	0	489
14	0	0	0	0	467
15	0	0	0	0	480
0	0	0	0	0	501
1	0	0	0	0	467
2	0	0	0	0	482
3	0	0	0	0	472
4	0	0	0	0	474
5	0	0	0	0	462
6	0	0	0	0	489
7	0	0	0	0	510
8	0	0	0	0	489
9	0	0	0	0	509
10	0	0	0	0	521
11	0	0	0	0	500
12	0	0	0	0	513
13	0	0	0	0	538
14	0	0	0	0	550
15	0	0	0	0	543
0	0	0	0	0	560
1	0	0	0	0	549
2	0	0	0	0	532
3	0	0	0	0	501
4	0	0	0	0	454
5	0	0	0	0	440
6	0	0	0	0	429
7	0	0	0	0	418
8	0	0	0	0	413
9	0	0	0	0	436
10	0	0	0	0	429
11	0	0	0	0	446
12	0	0	0	0	443
13	0	0	0	0	442
14	0	0	0	0	462
15	0	0	0	0	463
0	0	0	0	0	480
1	0	0	0	0	480
2	0	0	0	0	460
3	0	0	0	0	475
4	0	0	0	0	478
5	0	0	0	0	479
6	0	0	0	0	486
7	0	0	0	0	478
8	0	0	0	0	491
9	0	0	0	0	483
10	0	0	0	0	473
11	0	0	0	0	495
12	0	0	0	0	517
13	0	0	0	0	531
14	0	0	0	0	535
15	0	0	0	0	512
0	0	0	0	0	546
1	0	0	0	0	529
2	0	0	0	0	517
3	0	0	0	0	506
4	0	0	0	0	501
5	0	0	0	0	489
6	0	0	0	0	516
7	0	0	0	0	505
8	0	0	0	0	524
9	0	0	0	0	513
10	0	0	0	0	482
11	0	0	0	0	633
12	0	0	0	0	891
13	0	0	0	0	663
14	0	0	0	0	339
15	0	0	0	0	397
0	0	0	0	0	464
1	0	0	0	0	498
2	0	0	0	0	495
3	0	0	0	0	515
4	0	0	0	0	527
5	0	0	0	0	547
6	0	0	0	0	538
7	0	0	0	0	513
8	0	0	0	0	519
9	0	0	0	0	541
10	0	0	0	0	528
11	0	0	0	0	543
12	0	0	0	0	545
13	0	0	0	0	546
14	0	0	0	0	538
15	0	0	0	0	564
0	0	0	0	0	571
1	0	0	0	0	571
2	0	0	0	0	601
3	0	0	0	0	591
4	0	0	0	0	599
5	0	0	0	0	585
6	0	0	0	0	574
7	0	0	0	0	518
8	0	0	0	0	494
9	0	0	0	0	448
10	0	0	0	0	448
11	0	0	0	0	441
12	0	0	0	0	433
13	0	0	0	0	465
14	0	0	0	0	445
15	0	0	0	0	463
0	0	0	0	0	454
1	0	0	0	0	480
2	0	0	0	0	480
3	0	0	0	0	464
4	0	0	0	0	482
5	0	0	0	0	472
6	0	0	0	0	465
7	0	0	0	0	521
8	0	0	0	0	485
9	0	0	0	0	472
10	0	0	0	0	450
11	0	0	0	0	470
12	0	0	0	0	481
13	0	0	0	0	474
14	0	0	0	0	491
15	0	0	0	0	489
0	0	0	0	0	493
1	0	0	0	0	476
2	0	0	0	0	518
3	0	0	0	0	511
4	0	0	0	0	499
5	0	0	0	0	507
6	0	0	0	0	508
7	0	0	0	0	491
8	0	0	0	0	468
9	0	0	0	0	493
10	0	0	0	0	470
11	0	0	0	0	489
12	0	0	0	0	478
13	0	0	0	0	486
14	0	0	0	0	472
15	0	0	0	0	484
0	0	0	0	0	645
1	0	0	0	0	921
2	0	0	0	0	583
3	0	0	0	0	304
4	0	0	0	0	361
5	0	0	0	0	448
6	0	0	0	0	495
7	0	0	0	0	495
8	0	0	0	0	525
9	0	0	0	0	529
10	0	0	0	0	525
11	0	0	0	0	539
12	0	0	0	0	525
13	0	0	0	0	529
14	0	0	0	0	544
15	0	0	0	0	529
0	0	0	0	0	562
1	0	0	0	0	513
2	0	0	0	0	537
3	0	0	0	0	542
4	0	0	0	0	567
5	0	0	0	0	551
6	0	0	0	0	558
7	0	0	0	0	578
8	0	0	0	0	591
9	0	0	0	0	592
10	0	0	0	0	606
11	0	0	0	0	547
12	0	0	0	0	504
13	0	0	0	0	478
14	0	0	0	0	448
15	0	0	0	0	436
0	0	0	0	0	440
1	0	0	0	0	446
2	0	0	0	0	444
3	0	0	0	0	455
4	0	0	0	0	463
5	0	0	0	0	470
6	0	0	0	0	451
7	0	0	0	0	472
8	0	0	0	0	482
9	0	0	0	0	507
10	0	0	0	0	511
11	0	0	0	0	506
12	0	0	0	0	505
13	0	0	0	0	492
14	0	0	0	0	504
15	0	0	0	0	522
0	0	0	0	0	496
1	0	0	0	0	513
2	0	0	0	0	542
3	0	0	0	0	507
4	0	0	0	0	539
5	0	0	0	0	521
6	0	0	0	0	529
7	0	0	0	0	524
8	0	0	0	0	529
9	0	0	0	0	528
10	0	0	0	0	521
11	0	0	0	0	527
12	0	0	0	0	500
13	0	0	0	0	495
14	0	0	0	0	498
15	0	0	0	0	489
0	0	0	0	0	481
1	0	0	0	0	492
2	0	0	0	0	495
3	0	0	0	0	478
4	0	0	0	0	455
5	0	0	0	0	591
6	0	0	0	0	878
7	0	0	0	0	691
8	0	0	0	0	312
9	0	0	0	0	341
10	0	0	0	0	420
11	0	0	0	0	487
12	0	0	0	0	479
13	0	0	0	0	502
14	0	0	0	0	507
15	0	0	0	0	509
0	0	0	0	0	509
1	0	0	0	0	539
2	0	0	0	0	532
3	0	0	0	0	540
4	0	0	0	0	553
5	0	0	0	0	539
6	0	0	0	0	528
7	0	0	0	0	532
8	0	0	0	0	552
9	0	0	0	0	560
10	0	0	0	0	572
11	0	0	0	0	591
12	0	0	0	0	587
13	0	0	0	0	592
14	0	0	0	0	596
15	0	0	0	0	594
0	0	0	0	0	569
1	0	0	0	0	522
2	0	0	0	0	487
3	0	0	0	0	474
4	0	0	0	0	464
5	0	0	0	0	432
6	0	0	0	0	455
7	0	0	0	0	455
8	0	0	0	0	459
9	0	0	0	0	467
10	0	0	0	0	494
11	0	0	0	0	471
12	0	0	0	0	489
13	0	0	0	0	463
14	0	0	0	0	511
15	0	0	0	0	495
0	0	0	0	0	498
1	0	0	0	0	478
2	0	0	0	0	497
3	0	0	0	0	508
4	0	0	0	0	507
5	0	0	0	0	508
6	0	0	0	0	470
7	0	0	0	0	511
8	0	0	0	0	492
9	0	0	0	0	505
10	0	0	0	0	529
11	0	0	0	0	517
12	0	0	0	0	526
13	0	0	0	0	531
14	0	0	0	0	540
15	0	0	0	0	534
0	0	0	0	0	535
1	0	0	0	0	507
2	0	0	0	0	498
3	0	0	0	0	502
4	0	0	0	0	529
5	0	0	0	0	516
6	0	0	0	0	510
7	0	0	0	0	512
8	0	0	0	0	491
9	0	0	0	0	468
10	0	0	0	0	579
11	0	0	0	0	893
12	0	0	0	0	773
13	0	0	0	0	335
14	0	0	0	0	338
15	0	0	0	0	421
0	0	0	0	0	463
1	0	0	0	0	478
2	0	0	0	0	490
3	0	0	0	0	494
4	0	0	0	0	486
5	0	0	0	0	518
6	0	0	0	0	517
7	0	0	0	0	513
8	0	0	0	0	523
9	0	0	0	0	522
10	0	0	0	0	521
11	0	0	0	0	513
12	0	0	0	0	517
13	0	0	0	0	546
14	0	0	0	0	538
15	0	0	0	0	543
0	0	0	0	0	570
1	0	0	0	0	563
2	0	0	0	0	583
3	0	0	0	0	582
4	0	0	0	0	576
5	0	0	0	0	565
6	0	0	0	0	510
7	0	0	0	0	499
8	0	0	0	0	479
9	0	0	0	0	458
10	0	0	0	0	458
11	0	0	0	0	452
12	0	0	0	0	446
13	0	0	0	0	456
14	0	0	0	0	486
15	0	0	0	0	480
0	0	0	0	0	473
1	0	0	0	0	480
2	0	0	0	0	506
3	0	0	0	0	504
4	0	0	0	0	507
5	0	0	0	0	512
6	0	0	0	0	503
7	0	0	0	0	516
8	0	0	0	0	515
9	0	0	0	0	514
10	0	0	0	0	506
11	0	0	0	0	516
12	0	0	0	0	532
13	0	0	0	0	536
14	0	0	0	0	525
15	0	0	0	0	556
0	0	0	0	0	558
1	0	0	0	0	547
2	0	0	0	0	545
3	0	0	0	0	548
4	0	0	0	0	529
5	0	0	0	0	507
6	0	0	0	0	515
7	0	0	0	0	494
8	0	0	0	0	503
9	0	0	0	0	506
10	0	0	0	0	526
11	0	0	0	0	508
12	0	0	0	0	448
13	0	0	0	0	493
14	0	0	0	0	771
15	0	0	0	0	893
0	0	0	0	0	479
1	0	0	0	0	311
2	0	0	0	0	393
3	0	0	0	0	462
4	0	0	0	0	501
5	0	0	0	0	498
6	0	0	0	0	508
7	0	0	0	0	504
8	0	0	0	0	521
9	0	0	0	0	543
10	0	0	0	0	532
11	0	0	0	0	536
12	0	0	0	0	547
13	0	0	0	0	535
14	0	0	0	0	530
15	0	0	0	0	546
0	0	0	0	0	556
1	0	0	0	0	554
2	0	0	0	0	560
3	0	0	0	0	572
4	0	0	0	0	557
5	0	0	0	0	623
6	0	0	0	0	603
7	0	0	0	0	603
8	0	0	0	0	589
9	0	0	0	0	550
10	0	0	0	0	519
11	0	0	0	0	476
12	0	0	0	0	452
13	0	0	0	0	482
14	0	0	0	0	459
15	0	0	0	0	461
0	0	0	0	0	464
1	0	0	0	0	467
2	0	0	0	0	481
3	0	0	0	0	476
4	0	0	0	0	480
5	0	0	0	0	485
6	0	0	0	0	496
7	0	0	0	0	494
8	0	0	0	0	490
9	0	0	0	0	501
10	0	0	0	0	494
11	0	0	0	0	509
12	0	0	0	0	494
13	0	0	0	0	524
14	0	0	0	0	516
15	0	0	0	0	524
0	0	0	0	0	527
1	0	0	0	0	531
2	0	0	0	0	534
3	0	0	0	0	557
4	0	0	0	0	549
5	0	0	0	0	547
6	0	0	0	0	523
7	0	0	0	0	530
8	0	0	0	0	499
9	0	0	0	0	498
10	0	0	0	0	485
11	0	0	0	0	502
12	0	0	0	0	496
13	0	0	0	0	501
14	0	0	0	0	471
15	0	0	0	0	451
0	0	0	0	0	620
1	0	0	0	0	907
2	0	0	0	0	700
3	0	0	0	0	306
4	0	0	0	0	334
5	0	0	0	0	440
6	0	0	0	0	484
7	0	0	0	0	491
8	0	0	0	0	498
9	0	0	0	0	501
10	0	0	0	0	497
11	0	0	0	0	512
12	0	0	0	0	508
13	0	0	0	0	513
14	0	0	0	0	516
15	0	0	0	0	517
0	0	0	0	0	517
1	0	0	0	0	535
2	0	0	0	0	518
3	0	0	0	0	531
4	0	0	0	0	545
5	0	0	0	0	555
6	0	0	0	0	574
7	0	0	0	0	580
8	0	0	0	0	588
9	0	0	0	0	577
10	0	0	0	0	578
11	0	0	0	0	554
12	0	0	0	0	523
13	0	0	0	0	474
14	0	0	0	0	454
15	0	0	0	0	438
0	0	0	0	0	434
1	0	0	0	0	433
2	0	0	0	0	464
3	0	0	0	0	450
4	0	0	0	0	466
5	0	0	0	0	455
6	0	0	0	0	475
7	0	0	0	0	477
8	0	0	0	0	483
9	0	0	0	0	481
10	0	0	0	0	490
11	0	0	0	0	483
12	0	0	0	0	503
13	0	0	0	0	487
14	0	0	0	0	500
15	0	0	0	0	500
0	0	0	0	0	520
1	0	0	0	0	509
2	0	0	0	0	530
3	0	0	0	0	533
4	0	0	0	0	539
5	0	0	0	0	540
6	0	0	0	0	529
7	0	0	0	0	520
8	0	0	0	0	494
9	0	0	0	0	505
10	0	0	0	0	503
11	0	0	0	0	500
12	0	0	0	0	487
13	0	0	0	0	499
14	0	0	0	0	513
15	0	0	0	0	475
0	0	0	0	0	473
1	0	0	0	0	682
2	0	0	0	0	924
3	0	0	0	0	527
4	0	0	0	0	282
5	0	0	0	0	355
6	0	0	0	0	466
7	0	0	0	0	479
8	0	0	0	0	514
9	0	0	0	0	509
10	0	0	0	0	516
11	0	0	0	0	522
12	0	0	0	0	531
13	0	0	0	0	526
14	0	0	0	0	524
15	0	0	0	0	531
0	0	0	0	0	526
1	0	0	0	0	545
2	0	0	0	0	539
3	0	0	0	0	546
4	0	0	0	0	548
5	0	0	0	0	557
6	0	0	0	0	564
7	0	0	0	0	584
8	0	0	0	0	579
9	0	0	0	0	604
10	0	0	0	0	597
11	0	0	0	0	583
12	0	0	0	0	546
13	0	0	0	0	499
14	0	0	0	0	469
15	0	0	0	0	447
0	0	0	0	0	439
1	0	0	0	0	447
2	0	0	0	0	443
3	0	0	0	0	448
4	0	0	0	0	465
5	0	0	0	0	473
6	0	0	0	0	471
7	0	0	0	0	472
8	0	0	0	0	480
9	0	0	0	0	482
10	0	0	0	0	495
11	0	0	0	0	498
12	0	0	0	0	505
13	0	0	0	0	502
14	0	0	0	0	499
15	0	0	0	0	516
0	0	0	0	0	511
1	0	0	0	0	519
2	0	0	0	0	511
3	0	0	0	0	539
4	0	0	0	0	547
5	0	0	0	0	545
6	0	0	0	0	536
7	0	0	0	0	544
8	0	0	0	0	527
9	0	0	0	0	506
10	0	0	0	0	499
11	0	0	0	0	525
12	0	0	0	0	516
13	0	0	0	0	504
14	0	0	0	0	500
15	0	0	0	0	517
0	0	0	0	0	470
1	0	0	0	0	504
2	0	0	0	0	755
3	0	0	0	0	924
4	0	0	0	0	479
5	0	0	0	0	312
6	0	0	0	0	418
7	0	0	0	0	476
8	0	0	0	0	518
9	0	0	0	0	518
10	0	0	0	0	504
11	0	0	0	0	548
12	0	0	0	0	539
13	0	0	0	0	540
14	0	0	0	0	566
15	0	0	0	0	551
0	0	0	0	0	567
1	0	0	0	0	544
2	0	0	0	0	566
3	0	0	0	0	560
4	0	0	0	0	577
5	0	0	0	0	566
6	0	0	0	0	588
7	0	0	0	0	597
8	0	0	0	0	594
9	0	0	0	0	614
10	0	0	0	0	607
11	0	0	0	0	625
12	0	0	0	0	613
13	0	0	0	0	574
14	0	0	0	0	530
15	0	0	0	0	504
0	0	0	0	0	476
1	0	0	0	0	467
2	0	0	0	0	486
3	0	0	0	0	487
4	0	0	0	0	487
5	0	0	0	0	505
6	0	0	0	0	511
7	0	0	0	0	509
8	0	0	0	0	520
9	0	0	0	0	522
10	0	0	0	0	527
11	0	0	0	0	543
12	0	0	0	0	520
13	0	0	0	0	527
14	0	0	0	0	513
15	0	0	0	0	534
0	0	0	0	0	527
1	0	0	0	0	539
2	0	0	0	0	542
3	0	0	0	0	542
4	0	0	0	0	557
5	0	0	0	0	554
6	0	0	0	0	557
7	0	0	0	0	557
8	0	0	0	0	548
9	0	0	0	0	542
10	0	0	0	0	525
11	0	0	0	0	522
12	0	0	0	0	499
13	0	0	0	0	523
14	0	0	0	0	498
15	0	0	0	0	511
0	0	0	0	0	505
1	0	0	0	0	480
2	0	0	0	0	473
3	0	0	0	0	655
4	0	0	0	0	915
5	0	0	0	0	601
6	0	0	0	0	316
7	0	0	0	0	367
8	0	0	0	0	457
9	0	0	0	0	487
10	0	0	0	0	476
11	0	0	0	0	496
12	0	0	0	0	512
13	0	0	0	0	503
14	0	0	0	0	511
15	0	0	0	0	504
0	0	0	0	0	509
1	0	0	0	0	513
2	0	0	0	0	521
3	0	0	0	0	513
4	0	0	0	0	508
5	0	0	0	0	516
6	0	0	0	0	522
7	0	0	0	0	532
8	0	0	0	0	537
9	0	0	0	0	536
10	0	0	0	0	567
11	0	0	0	0	567
12	0	0	0	0	567
13	0	0	0	0	551
14	0	0	0	0	535
15	0	0	0	0	489
0	0	0	0	0	446
1	0	0	0	0	434
2	0	0	0	0	415
3	0	0	0	0	423
4	0	0	0	0	425
5	0	0	0	0	425
6	0	0	0	0	430
7	0	0	0	0	432
8	0	0	0	0	448
9	0	0	0	0	441
10	0	0	0	0	446
11	0	0	0	0	451
12	0	0	0	0	460
13	0	0	0	0	462
14	0	0	0	0	455
15	0	0	0	0	458
0	0	0	0	0	454
1	0	0	0	0	457
2	0	0	0	0	470
3	0	0	0	0	463
4	0	0	0	0	474
5	0	0	0	0	484
6	0	0	0	0	480
7	0	0	0	0	504
8	0	0	0	0	500
9	0	0	0	0	504
10	0	0	0	0	514
11	0	0	0	0	491
12	0	0	0	0	475
13	0	0	0	0	456
14	0	0	0	0	458
15	0	0	0	0	469
0	0	0	0	0	464
1	0	0	0	0	457
2	0	0	0	0	460
3	0	0	0	0	469
4	0	0	0	0	418
5	0	0	0	0	516
6	0	0	0	0	814
7	0	0	0	0	772
8	0	0	0	0	305
9	0	0	0	0	311
10	0	0	0	0	411
11	0	0	0	0	452
12	0	0	0	0	454
13	0	0	0	0	467
14	0	0	0	0	481
15	0	0	0	0	486
0	0	0	0	0	486
1	0	0	0	0	494
2	0	0	0	0	484
3	0	0	0	0	497
4	0	0	0	0	500
5	0	0	0	0	502
6	0	0	0	0	505
7	0	0	0	0	512
8	0	0	0	0	519
9	0	0	0	0	527
10	0	0	0	0	520
11	0	0	0	0	540
12	0	0	0	0	551
13	0	0	0	0	561
14	0	0	0	0	569
15	0	0	0	0	566
0	0	0	0	0	548
1	0	0	0	0	513
2	0	0	0	0	455
3	0	0	0	0	440
4	0	0	0	0	431
5	0	0	0	0	431
6	0	0	0	0	441
7	0	0	0	0	432
8	0	0	0	0	438
9	0	0	0	0	458
10	0	0	0	0	455
11	0	0	0	0	465
12	0	0	0	0	473
13	0	0	0	0	470
14	0	0	0	0	483
15	0	0	0	0	484
0	0	0	0	0	479
1	0	0	0	0	486
2	0	0	0	0	488
3	0	0	0	0	499
4	0	0	0	0	493
5	0	0	0	0	495
6	0	0	0	0	499
7	0	0	0	0	496
8	0	0	0	0	508
9	0	0	0	0	516
10	0	0	0	0	508
11	0	0	0	0	515
12	0	0	0	0	532
13	0	0	0	0	548
14	0	0	0	0	538
15	0	0	0	0	543
0	0	0	0	0	527
1	0	0	0	0	511
2	0	0	0	0	504
3	0	0	0	0	486
4	0	0	0	0	494
5	0	0	0	0	491
6	0	0	0	0	495
7	0	0	0	0	492
8	0	0	0	0	504
9	0	0	0	0	458
10	0	0	0	0	495
11	0	0	0	0	744
12	0	0	0	0	912
13	0	0	0	0	440
14	0	0	0	0	287
15	0	0	0	0	403
0	0	0	0	0	478
1	0	0	0	0	487
2	0	0	0	0	506
3	0	0	0	0	513
4	0	0	0	0	509
5	0	0	0	0	523
6	0	0	0	0	520
7	0	0	0	0	528
8	0	0	0	0	521
9	0	0	0	0	539
10	0	0	0	0	530
11	0	0	0	0	541
12	0	0	0	0	547
13	0	0	0	0	547
14	0	0	0	0	541
15	0	0	0	0	549
0	0	0	0	0	563
1	0	0	0	0	580
2	0	0	0	0	584
3	0	0	0	0	586
4	0	0	0	0	597
5	0	0	0	0	603
6	0	0	0	0	545
7	0	0	0	0	510
8	0	0	0	0	483
9	0	0	0	0	454
10	0	0	0	0	433
11	0	0	0	0	440
12	0	0	0	0	446
13	0	0	0	0	452
14	0	0	0	0	473
15	0	0	0	0	466
0	0	0	0	0	475
1	0	0	0	0	490
2	0	0	0	0	481
3	0	0	0	0	495
4	0	0	0	0	490
5	0	0	0	0	490
6	0	0	0	0	499
7	0	0	0	0	497
8	0	0	0	0	497
9	0	0	0	0	506
10	0	0	0	0	516
11	0	0	0	0	509
12	0	0	0	0	512
13	0	0	0	0	508
14	0	0	0	0	530
15	0	0	0	0	532
0	0	0	0	0	536
1	0	0	0	0	547
2	0	0	0	0	546
3	0	0	0	0	533
4	0	0	0	0	531
5	0	0	0	0	520
6	0	0	0	0	507
7	0	0	0	0	512
8	0	0	0	0	504
9	0	0	0	0	506
10	0	0	0	0	514
11	0	0	0	0	508
12	0	0	0	0	469
13	0	0	0	0	483
14	0	0	0	0	698
15	0	0	0	0	921
0	0	0	0	0	471
1	0	0	0	0	274
2	0	0	0	0	358
3	0	0	0	0	465
4	0	0	0	0	512
5	0	0	0	0	516
6	0	0	0	0	512
7	0	0	0	0	520
8	0	0	0	0	531
9	0	0	0	0	525
10	0	0	0	0	534
11	0	0	0	0	527
12	0	0	0	0	530
13	0	0	0	0	537
14	0	0	0	0	534
15	0	0	0	0	535
0	0	0	0	0	540
1	0	0	0	0	554
2	0	0	0	0	548
3	0	0	0	0	568
4	0	0	0	0	581
5	0	0	0	0	595
6	0	0	0	0	588
7	0	0	0	0	592
8	0	0	0	0	574
9	0	0	0	0	551
10	0	0	0	0	510
11	0	0	0	0	463
12	0	0	0	0	451
13	0	0	0	0	433
14	0	0	0	0	432
15	0	0	0	0	449
0	0	0	0	0	454
1	0	0	0	0	449
2	0	0	0	0	462
3	0	0	0	0	472
4	0	0	0	0	473
5	0	0	0	0	485
6	0	0	0	0	485
7	0	0	0	0	481
8	0	0	0	0	496
9	0	0	0	0	499
10	0	0	0	0	505
11	0	0	0	0	508
12	0	0	0	0	503
13	0	0	0	0	507
14	0	0	0	0	519
15	0	0	0	0	521
0	0	0	0	0	528
1	0	0	0	0	531
2	0	0	0	0	538
3	0	0	0	0	540
4	0	0	0	0	534
5	0	0	0	0	539
6	0	0	0	0	525
7	0	0	0	0	515
8	0	0	0	0	504
9	0	0	0	0	508
10	0	0	0	0	504
11	0	0	0	0	508
12	0	0	0	0	513
13	0	0	0	0	512
14	0	0	0	0	467
15	0	0	0	0	503
0	0	0	0	0	759
1	0	0	0	0	896
2	0	0	0	0	450
3	0	0	0	0	326
4	0	0	0	0	409
5	0	0	0	0	500
6	0	0	0	0	527
7	0	0	0	0	526
8	0	0	0	0	530
9	0	0	0	0	530
10	0	0	0	0	532
11	0	0	0	0	545
12	0	0	0	0	548
13	0	0	0	0	547
14	0	0	0	0	559
15	0	0	0	0	543
0	0	0	0	0	550
1	0	0	0	0	563
2	0	0	0	0	560
3	0	0	0	0	573
4	0	0	0	0	569
5	0	0	0	0	587
6	0	0	0	0	604
7	0	0	0	0	606
8	0	0	0	0	604
9	0	0	0	0	608
10	0	0	0	0	595
11	0	0	0	0	556
12	0	0	0	0	515
13	0	0	0	0	502
14	0	0	0	0	470
15	0	0	0	0	459
0	0	0	0	0	469
1	0	0	0	0	480
2	0	0	0	0	473
3	0	0	0	0	481
4	0	0	0	0	485
5	0	0	0	0	498
6	0	0	0	0	496
7	0	0	0	0	494
8	0	0	0	0	505
9	0	0	0	0	497
10	0	0	0	0	497
11	0	0	0	0	502
12	0	0	0	0	505
13	0	0	0	0	497
14	0	0	0	0	498
15	0	0	0	0	507
0	0	0	0	0	513
1	0	0	0	0	511
2	0	0	0	0	519
3	0	0	0	0	524
4	0	0	0	0	537
5	0	0	0	0	525
6	0	0	0	0	527
7	0	0	0	0	522
8	0	0	0	0	493
9	0	0	0	0	484
10	0	0	0	0	478
11	0	0	0	0	483
12	0	0	0	0	479
13	0	0	0	0	485
14	0	0	0	0	472
15	0	0	0	0	465
0	0	0	0	0	427
1	0	0	0	0	545
2	0	0	0	0	827
3	0	0	0	0	746
4	0	0	0	0	309
5	0	0	0	0	309
6	0	0	0	0	404
7	0	0	0	0	444
8	0	0	0	0	465
9	0	0	0	0	474
10	0	0	0	0	465
11	0	0	0	0	475
12	0	0	0	0	482
13	0	0	0	0	489
14	0	0	0	0	489
15	0	0	0	0	489
0	0	0	0	0	485
1	0	0	0	0	486
2	0	0	0	0	497
3	0	0	0	0	496
4	0	0	0	0	500
5	0	0	0	0	514
6	0	0	0	0	521
7	0	0	0	0	550
8	0	0	0	0	527
9	0	0	0	0	547
10	0	0	0	0	559
11	0	0	0	0	547
12	0	0	0	0	527
13	0	0	0	0	491
14	0	0	0	0	444
15	0	0	0	0	422
0	0	0	0	0	411
1	0	0	0	0	418
2	0	0	0	0	410
3	0	0	0	0	428
4	0	0	0	0	438
5	0	0	0	0	448
6	0	0	0	0	442
7	0	0	0	0	455
8	0	0	0	0	449
9	0	0	0	0	464
10	0	0	0	0	465
11	0	0	0	0	465
12	0	0	0	0	466
13	0	0	0	0	479
14	0	0	0	0	486
15	0	0	0	0	475
0	0	0	0	0	475
1	0	0	0	0	491
2	0	0	0	0	492
3	0	0	0	0	510
4	0	0	0	0	491
5	0	0	0	0	523
6	0	0	0	0	524
7	0	0	0	0	530
8	0	0	0	0	536
9	0	0	0	0	524
10	0	0	0	0	501
11	0	0	0	0	500
12	0	0	0	0	488
13	0	0	0	0	488
14	0	0	0	0	493
15	0	0	0	0	494
0	0	0	0	0	495
1	0	0	0	0	493
2	0	0	0	0	449
3	0	0	0	0	499
4	0	0	0	0	731
5	0	0	0	0	902
6	0	0	0	0	437
7	0	0	0	0	293
8	0	0	0	0	391
9	0	0	0	0	474
10	0	0	0	0	488
11	0	0	0	0	500
12	0	0	0	0	513
13	0	0	0	0	518
14	0	0	0	0	509
15	0	0	0	0	517
0	0	0	0	0	519
1	0	0	0	0	521
2	0	0	0	0	527
3	0	0	0	0	542
4	0	0	0	0	519
5	0	0	0	0	542
6	0	0	0	0	544
7	0	0	0	0	545
8	0	0	0	0	567
9	0	0	0	0	566
10	0	0	0	0	566
11	0	0	0	0	591
12	0	0	0	0	591
13	0	0	0	0	588
14	0	0	0	0	585
15	0	0	0	0	537
0	0	0	0	0	494
1	0	0	0	0	465
2	0	0	0	0	459
3	0	0	0	0	450
4	0	0	0	0	457
5	0	0	0	0	452
6	0	0	0	0	455
7	0	0	0	0	471
8	0	0	0	0	470
9	0	0	0	0	485
10	0	0	0	0	480
11	0	0	0	0	477
12	0	0	0	0	504
13	0	0	0	0	495
14	0	0	0	0	493
15	0	0	0	0	500
0	0	0	0	0	507
1	0	0	0	0	519
2	0	0	0	0	511
3	0	0	0	0	519
4	0	0	0	0	515
5	0	0	0	0	512
6	0	0	0	0	517
7	0	0	0	0	526
8	0	0	0	0	531
9	0	0	0	0	532
10	0	0	0	0	555
11	0	0	0	0	554
12	0	0	0	0	554
13	0	0	0	0	552
14	0	0	0	0	518
15	0	0	0	0	527
0	0	0	0	0	496
1	0	0	0	0	503
2	0	0	0	0	510
3	0	0	0	0	498
4	0	0	0	0	508
5	0	0	0	0	514
6	0	0	0	0	470
7	0	0	0	0	556
8	0	0	0	0	847
9	0	0	0	0	824
10	0	0	0	0	338
11	0	0	0	0	320
12	0	0	0	0	430
13	0	0	0	0	499
14	0	0	0	0	508
15	0	0	0	0	519
0	0	0	0	0	516
1	0	0	0	0	515
2	0	0	0	0	527
3	0	0	0	0	532
4	0	0	0	0	525
5	0	0	0	0	531
6	0	0	0	0	531
7	0	0	0	0	546
8	0	0	0	0	539
9	0	0	0	0	546
10	0	0	0	0	550
11	0	0	0	0	556
12	0	0	0	0	574
13	0	0	0	0	563
14	0	0	0	0	583
15	0	0	0	0	593
0	0	0	0	0	598
1	0	0	0	0	590
2	0	0	0	0	579
3	0	0	0	0	530
4	0	0	0	0	483
5	0	0	0	0	460
6	0	0	0	0	443
7	0	0	0	0	440
8	0	0	0	0	437
9	0	0	0	0	454
10	0	0	0	0	471
11	0	0	0	0	459
12	0	0	0	0	454
13	0	0	0	0	478
14	0	0	0	0	476
15	0	0	0	0	484
0	0	0	0	0	491
1	0	0	0	0	492
2	0	0	0	0	491
3	0	0	0	0	500
4	0	0	0	0	493
5	0	0	0	0	515
6	0	0	0	0	500
7	0	0	0	0	516
8	0	0	0	0	515
9	0	0	0	0	526
10	0	0	0	0	532
11	0	0	0	0	534
12	0	0	0	0	540
13	0	0	0	0	543
14	0	0	0	0	534
15	0	0	0	0	523
0	0	0	0	0	505
1	0	0	0	0	491
2	0	0	0	0	503
3	0	0	0	0	492
4	0	0	0	0	508
5	0	0	0	0	500
6	0	0	0	0	503
7	0	0	0	0	451
8	0	0	0	0	583
9	0	0	0	0	872
10	0	0	0	0	720
11	0	0	0	0	298
12	0	0	0	0	331
13	0	0	0	0	440
14	0	0	0	0	489
15	0	0	0	0	504
0	0	0	0	0	515
1	0	0	0	0	514
2	0	0	0	0	519
3	0	0	0	0	517
4	0	0	0	0	518
5	0	0	0	0	522
6	0	0	0	0	519
7	0	0	0	0	538
8	0	0	0	0	523
9	0	0	0	0	535
10	0	0	0	0	538
11	0	0	0	0	544
12	0	0	0	0	550
13	0	0	0	0	563
14	0	0	0	0	572
15	0	0	0	0	581
0	0	0	0	0	587
1	0	0	0	0	595
2	0	0	0	0	580
3	0	0	0	0	560
4	0	0	0	0	508
5	0	0	0	0	470
6	0	0	0	0	452
7	0	0	0	0	432
8	0	0	0	0	434
9	0	0	0	0	443
10	0	0	0	0	448
11	0	0	0	0	460
12	0	0	0	0	457
13	0	0	0	0	473
14	0	0	0	0	481
15	0	0	0	0	473
0	0	0	0	0	488
1	0	0	0	0	488
2	0	0	0	0	495
3	0	0	0	0	490
4	0	0	0	0	505
5	0	0	0	0	497
6	0	0	0	0	507
7	0	0	0	0	508
8	0	0	0	0	509
9	0	0	0	0	519
10	0	0	0	0	531
11	0	0	0	0	535
12	0	0	0	0	533
13	0	0	0	0	540
14	0	0	0	0	540
15	0	0	0	0	527
0	0	0	0	0	505
1	0	0	0	0	489
2	0	0	0	0	501
3	0	0	0	0	503
4	0	0	0	0	502
5	0	0	0	0	505
6	0	0	0	0	497
7	0	0	0	0	473
8	0	0	0	0	463
9	0	0	0	0	634
10	0	0	0	0	896
11	0	0	0	0	641
12	0	0	0	0	309
13	0	0	0	0	368
14	0	0	0	0	460
15	0	0	0	0	484
0	0	0	0	0	492
1	0	0	0	0	498
2	0	0	0	0	507
3	0	0	0	0	509
4	0	0	0	0	512
5	0	0	0	0	519
6	0	0	0	0	519
7	0	0	0	0	517
8	0	0	0	0	530
9	0	0	0	0	532
10	0	0	0	0	538
11	0	0	0	0	535
12	0	0	0	0	542
13	0	0	0	0	543
14	0	0	0	0	561
15	0	0	0	0	578
0	0	0	0	0	583
1	0	0	0	0	586
2	0	0	0	0	597
3	0	0	0	0	574
4	0	0	0	0	548
5	0	0	0	0	516
6	0	0	0	0	474
7	0	0	0	0	451
8	0	0	0	0	447
9	0	0	0	0	443
10	0	0	0	0	456
11	0	0	0	0	453
12	0	0	0	0	469
13	0	0	0	0	472
14	0	0	0	0	479
15	0	0	0	0	476
0	0	0	0	0	496
1	0	0	0	0	487
2	0	0	0	0	491
3	0	0	0	0	499
4	0	0	0	0	492
5	0	0	0	0	504
6	0	0	0	0	510
7	0	0	0	0	516
8	0	0	0	0	509
9	0	0	0	0	512
10	0	0	0	0	513
11	0	0	0	0	522
12	0	0	0	0	536
13	0	0	0	0	546
14	0	0	0	0	556
15	0	0	0	0	547
0	0	0	0	0	561
1	0	0	0	0	534
2	0	0	0	0	518
3	0	0	0	0	515
4	0	0	0	0	513
5	0	0	0	0	518
6	0	0	0	0	510
7	0	0	0	0	515
8	0	0	0	0	500
9	0	0	0	0	511
10	0	0	0	0	472
11	0	0	0	0	584
12	0	0	0	0	876
13	0	0	0	0	783
14	0	0	0	0	347
15	0	0	0	0	358
0	0	0	0	0	468
1	0	0	0	0	499
2	0	0	0	0	518
3	0	0	0	0	504
4	0	0	0	0	518
5	0	0	0	0	528
6	0	0	0	0	527
7	0	0	0	0	536
8	0	0	0	0	532
9	0	0	0	0	529
10	0	0	0	0	535
11	0	0	0	0	545
12	0	0	0	0	542
13	0	0	0	0	550
14	0	0	0	0	555
15	0	0	0	0	561
0	0	0	0	0	560
1	0	0	0	0	576
2	0	0	0	0	583
3	0	0	0	0	595
4	0	0	0	0	599
5	0	0	0	0	591
6	0	0	0	0	564
7	0	0	0	0	515
8	0	0	0	0	470
9	0	0	0	0	455
10	0	0	0	0	443
11	0	0	0	0	436
12	0	0	0	0	438
13	0	0	0	0	448
14	0	0	0	0	451
15	0	0	0	0	466
0	0	0	0	0	453
1	0	0	0	0	466
2	0	0	0	0	478
3	0	0	0	0	474
4	0	0	0	0	468
5	0	0	0	0	482
6	0	0	0	0	480
7	0	0	0	0	480
8	0	0	0	0	484
9	0	0	0	0	482
10	0	0	0	0	488
11	0	0	0	0	493
12	0	0	0	0	491
13	0	0	0	0	487
14	0	0	0	0	491
15	0	0	0	0	493
0	0	0	0	0	491
1	0	0	0	0	498
2	0	0	0	0	505
3	0	0	0	0	505
4	0	0	0	0	512
5	0	0	0	0	530
6	0	0	0	0	517
7	0	0	0	0	524
8	0	0	0	0	524
9	0	0	0	0	510
10	0	0	0	0	484
11	0	0	0	0	486
12	0	0	0	0	475
13	0	0	0	0	479
14	0	0	0	0	477
15	0	0	0	0	481
0	0	0	0	0	483
1	0	0	0	0	448
2	0	0	0	0	439
3	0	0	0	0	644
4	0	0	0	0	900
5	0	0	0	0	557
6	0	0	0	0	282
7	0	0	0	0	360
8	0	0	0	0	444
9	0	0	0	0	472
10	0	0	0	0	473
11	0	0	0	0	480
12	0	0	0	0	486
13	0	0	0	0	494
14	0	0	0	0	497
15	0	0	0	0	504
0	0	0	0	0	500
1	0	0	0	0	508
2	0	0	0	0	506
3	0	0	0	0	508
4	0	0	0	0	513
5	0	0	0	0	520
6	0	0	0	0	524
7	0	0	0	0	540
8	0	0	0	0	549
9	0	0	0	0	551
10	0	0	0	0	564
11	0	0	0	0	572
12	0	0	0	0	578
13	0	0	0	0	568
14	0	0	0	0	544
15	0	0	0	0	495
0	0	0	0	0	464
1	0	0	0	0	444
2	0	0	0	0	432
3	0	0	0	0	426
4	0	0	0	0	433
5	0	0	0	0	440
6	0	0	0	0	456
7	0	0	0	0	452
8	0	0	0	0	464
9	0	0	0	0	476
10	0	0	0	0	466
11	0	0	0	0	482
12	0	0	0	0	480
13	0	0	0	0	486
14	0	0	0	0	489
15	0	0	0	0	484
0	0	0	0	0	496
1	0	0	0	0	494
2	0	0	0	0	494
3	0	0	0	0	505
4	0	0	0	0	497
5	0	0	0	0	511
6	0	0	0	0	499
7	0	0	0	0	505
8	0	0	0	0	507
9	0	0	0	0	515
10	0	0	0	0	503
11	0	0	0	0	524
12	0	0	0	0	519
13	0	0	0	0	520
14	0	0	0	0	531
15	0	0	0	0	536
0	0	0	0	0	544
1	0	0	0	0	537
2	0	0	0	0	543
3	0	0	0	0	537
4	0	0	0	0	511
5	0	0	0	0	500
6	0	0	0	0	495
7	0	0	0	0	499
8	0	0	0	0	501
9	0	0	0	0	508
10	0	0	0	0	503
11	0	0	0	0	480
12	0	0	0	0	464
13	0	0	0	0	610
14	0	0	0	0	901
15	0	0	0	0	673
0	0	0	0	0	289
1	0	0	0	0	343
2	0	0	0	0	451
3	0	0	0	0	495
4	0	0	0	0	500
5	0	0	0	0	509
6	0	0	0	0	522
7	0	0	0	0	516
8	0	0	0	0	511
9	0	0	0	0	527
10	0	0	0	0	525
11	0	0	0	0	528
12	0	0	0	0	531
13	0	0	0	0	533
14	0	0	0	0	526
15	0	0	0	0	532
0	0	0	0	0	539
1	0	0	0	0	561
2	0	0	0	0	560
3	0	0	0	0	569
4	0	0	0	0	572
5	0	0	0	0	585
6	0	0	0	0	602
7	0	0	0	0	584
8	0	0	0	0	551
9	0	0	0	0	512
10	0	0	0	0	479
11	0	0	0	0	458
12	0	0	0	0	436
13	0	0	0	0	450
14	0	0	0	0	449
15	0	0	0	0	446
0	0	0	0	0	462
1	0	0	0	0	479
2	0	0	0	0	476
3	0	0	0	0	471
4	0	0	0	0	479
5	0	0	0	0	481
6	0	0	0	0	484
7	0	0	0	0	483
8	0	0	0	0	505
9	0	0	0	0	498
10	0	0	0	0	504
11	0	0	0	0	508
12	0	0	0	0	500
13	0	0	0	0	509
14	0	0	0	0	502
15	0	0	0	0	508
0	0	0	0	0	507
1	0	0	0	0	520
2	0	0	0	0	518
3	0	0	0	0	520
4	0	0	0	0	525
5	0	0	0	0	533
6	0	0	0	0	530
7	0	0	0	0	541
8	0	0	0	0	548
9	0	0	0	0	545
10	0	0	0	0	536
11	0	0	0	0	524
12	0	0	0	0	509
13	0	0	0	0	508
14	0	0	0	0	504
15	0	0	0	0	500
0	0	0	0	0	511
1	0	0	0	0	505
2	0	0	0	0	503
3	0	0	0	0	456
4	0	0	0	0	518
5	0	0	0	0	761
6	0	0	0	0	843
7	0	0	0	0	369
8	0	0	0	0	322
9	0	0	0	0	430
10	0	0	0	0	476
11	0	0	0	0	504
12	0	0	0	0	505
13	0	0	0	0	507
14	0	0	0	0	521
15	0	0	0	0	519
0	0	0	0	0	519
1	0	0	0	0	528
2	0	0	0	0	532
3	0	0	0	0	538
4	0	0	0	0	530
5	0	0	0	0	537
6	0	0	0	0	532
7	0	0	0	0	536
8	0	0	0	0	536
9	0	0	0	0	545
10	0	0	0	0	568
11	0	0	0	0	565
12	0	0	0	0	585
13	0	0	0	0	576
14	0	0	0	0	588
15	0	0	0	0	572
0	0	0	0	0	534
1	0	0	0	0	496
2	0	0	0	0	456
3	0	0	0	0	454
4	0	0	0	0	452
5	0	0	0	0	458
6	0	0	0	0	452
7	0	0	0	0	467
8	0	0	0	0	462
9	0	0	0	0	473
10	0	0	0	0	472
11	0	0	0	0	481
12	0	0	0	0	489
13	0	0	0	0	483
14	0	0	0	0	489
15	0	0	0	0	493
0	0	0	0	0	500
1	0	0	0	0	507
2	0	0	0	0	495
3	0	0	0	0	507
4	0	0	0	0	500
5	0	0	0	0	504
6	0	0	0	0	498
7	0	0	0	0	510
8	0	0	0	0	504
9	0	0	0	0	518
10	0	0	0	0	511
11	0	0	0	0	518
12	0	0	0	0	515
13	0	0	0	0	518
14	0	0	0	0	533
15	0	0	0	0	537
0	0	0	0	0	534
1	0	0	0	0	546
2	0	0	0	0	542
3	0	0	0	0	518
4	0	0	0	0	506
5	0	0	0	0	495
6	0	0	0	0	488
7	0	0	0	0	503
8	0	0	0	0	502
9	0	0	0	0	499
10	0	0	0	0	491
11	0	0	0	0	460
12	0	0	0	0	564
13	0	0	0	0	852
14	0	0	0	0	787
15	0	0	0	0	313
0	0	0	0	0	345
1	0	0	0	0	444
2	0	0	0	0	487
3	0	0	0	0	487
4	0	0	0	0	503
5	0	0	0	0	507
6	0	0	0	0	509
7	0	0	0	0	509
8	0	0	0	0	523
9	0	0	0	0	527
10	0	0	0	0	530
11	0	0	0	0	526
12	0	0	0	0	523
13	0	0	0	0	536
14	0	0	0	0	535
15	0	0	0	0	545
0	0	0	0	0	542
1	0	0	0	0	556
2	0	0	0	0	560
3	0	0	0	0	573
4	0	0	0	0	575
5	0	0	0	0	591
6	0	0	0	0	583
7	0	0	0	0	555
8	0	0	0	0	519
9	0	0	0	0	486
10	0	0	0	0	451
11	0	0	0	0	445
12	0	0	0	0	443
13	0	0	0	0	441
14	0	0	0	0	457
15	0	0	0	0	457
0	0	0	0	0	454
1	0	0	0	0	468
2	0	0	0	0	471
3	0	0	0	0	480
4	0	0	0	0	486
5	0	0	0	0	487
6	0	0	0	0	480
7	0	0	0	0	488
8	0	0	0	0	490
9	0	0	0	0	497
10	0	0	0	0	500
11	0	0	0	0	505
12	0	0	0	0	505
13	0	0	0	0	511
14	0	0	0	0	513
15	0	0	0	0	503
0	0	0	0	0	503
1	0	0	0	0	515
2	0	0	0	0	511
3	0	0	0	0	509
4	0	0	0	0	519
5	0	0	0	0	513
6	0	0	0	0	512
7	0	0	0	0	527
8	0	0	0	0	529
9	0	0	0	0	532
10	0	0	0	0	532
11	0	0	0	0	550
12	0	0	0	0	551
13	0	0	0	0	535
14	0	0	0	0	544
15	0	0	0	0	523
0	0	0	0	0	509
1	0	0	0	0	504
2	0	0	0	0	492
3	0	0	0	0	504
4	0	0	0	0	506
5	0	0	0	0	503
6	0	0	0	0	500
7	0	0	0	0	457
8	0	0	0	0	570
9	0	0	0	0	850
10	0	0	0	0	811
11	0	0	0	0	337
12	0	0	0	0	339
13	0	0	0	0	446
14	0	0	0	0	492
15	0	0	0	0	499
0	0	0	0	0	512
1	0	0	0	0	513
2	0	0	0	0	510
3	0	0	0	0	526
4	0	0	0	0	524
5	0	0	0	0	532
6	0	0	0	0	536
7	0	0	0	0	536
8	0	0	0	0	538
9	0	0	0	0	540
10	0	0	0	0	545
11	0	0	0	0	553
12	0	0	0	0	561
13	0	0	0	0	562
14	0	0	0	0	566
15	0	0	0	0	586
0	0	0	0	0	591
1	0	0	0	0	599
2	0	0	0	0	595
3	0	0	0	0	588
4	0	0	0	0	556
5	0	0	0	0	508
6	0	0	0	0	477
7	0	0	0	0	455
8	0	0	0	0	450
9	0	0	0	0	451
10	0	0	0	0	462
11	0	0	0	0	472
12	0	0	0	0	483
13	0	0	0	0	473
14	0	0	0	0	490
15	0	0	0	0	488
0	0	0	0	0	481
1	0	0	0	0	490
2	0	0	0	0	497
3	0	0	0	0	499
4	0	0	0	0	499
5	0	0	0	0	502
6	0	0	0	0	493
7	0	0	0	0	508
8	0	0	0	0	508
9	0	0	0	0	504
10	0	0	0	0	505
11	0	0	0	0	502
12	0	0	0	0	500
13	0	0	0	0	507
14	0	0	0	0	508
15	0	0	0	0	508
0	0	0	0	0	502
1	0	0	0	0	497
2	0	0	0	0	497
3	0	0	0	0	500
4	0	0	0	0	499
5	0	0	0	0	501
6	0	0	0	0	493
7	0	0	0	0	502
8	0	0	0	0	500
9	0	0	0	0	501
10	0	0	0	0	503
11	0	0	0	0	513
12	0	0	0	0	518
13	0	0	0	0	510
14	0	0	0	0	496
15	0	0	0	0	492
0	0	0	0	0	482
1	0	0	0	0	458
2	0	0	0	0	459
3	0	0	0	0	459
4	0	0	0	0	455
5	0	0	0	0	452
6	0	0	0	0	460
7	0	0	0	0	429
8	0	0	0	0	406
9	0	0	0	0	579
10	0	0	0	0	855
11	0	0	0	0	620
12	0	0	0	0	236
13	0	0	0	0	294
14	0	0	0	0	404
15	0	0	0	0	427
0	0	0	0	0	446
1	0	0	0	0	442
2	0	0	0	0	448
3	0	0	0	0	455
4	0	0	0	0	456
5	0	0	0	0	468
6	0	0	0	0	467
7	0	0	0	0	468
8	0	0	0	0	479
9	0	0	0	0	476
10	0	0	0	0	492
11	0	0	0	0	479
12	0	0	0	0	484
13	0	0	0	0	504
14	0	0	0	0	503
15	0	0	0	0	523
0	0	0	0	0	539
1	0	0	0	0	547
2	0	0	0	0	547
3	0	0	0	0	546
4	0	0	0	0	536
5	0	0	0	0	491
6	0	0	0	0	464
7	0	0	0	0	432
8	0	0	0	0	417
